Polar data for 2 at Re = 117142.85714285714
Alpha (deg) Cl Cd
-180.0 -7.468806698417319 0.8481816719015973
-179.49930458970792 -7.491819305508145 0.8462261318611017
-178.99860917941587 -7.514701238661228 0.844257523961939
-178.49791376912378 -7.537451472291604 0.8422759408825997
-177.9972183588317 -7.560068980814309 0.8402814753015724
-177.49652294853965 -7.582552738644388 0.8382742198973463
-176.99582753824757 -7.604901720196876 0.8362542673484108
-176.4951321279555 -7.627114899886811 0.8342217103332548
-175.99443671766343 -7.64919125212923 0.832176641530368
-175.49374130737135 -7.671129751339171 0.8301191536182388
-174.99304589707927 -7.692929371931674 0.8280493392753581
-174.49235048678722 -7.7145890883217785 0.8259672911802127
-173.99165507649514 -7.736107874924516 0.8238731020112944
-173.49095966620305 -7.7574847061549335 0.8217668644470897
-172.990264255911 -7.778718556428068 0.8196486711660889
-172.48956884561892 -7.799808400158948 0.817518614846783
-171.98887343532684 -7.820753211762623 0.8153767881676588
-171.48817802503476 -7.841551965654125 0.8132232838072064
-170.9874826147427 -7.862203636248493 0.8110581944439161
-170.48678720445062 -7.8827071979607695 0.8088816127562741
-169.98609179415854 -7.9030616252059875 0.8066936314227733
-169.4853963838665 -7.923265892399188 0.8044943431218994
-168.9847009735744 -7.943318973955408 0.8022838405321449
-168.48400556328232 -7.96321984428968 0.8000622163319968
-167.98331015299027 -7.982967477817052 0.797829563199945
-167.4826147426982 -8.002560848952564 0.7955859738144788
-166.9819193324061 -8.02199893211124 0.7933315408540871
-166.48122392211405 -8.041280701708132 0.7910663569972596
-165.98052851182197 -8.06040513215827 0.7887905149224848
-165.4798331015299 -8.079371197876695 0.7865041073082528
-164.97913769123784 -8.098177873278448 0.7842072268330522
-164.47844228094576 -8.116824132778564 0.7818999661753723
-163.97774687065368 -8.135308950792082 0.7795824180137019
-163.47705146036162 -8.15363130173404 0.7772546750265308
-162.97635605006954 -8.171790160019475 0.7749168298923483
-162.47566063977746 -8.189784500063427 0.7725689752896434
-161.9749652294854 -8.207613296280929 0.7702112038969053
-161.47426981919332 -8.225275523087031 0.7678436083926226
-160.97357440890124 -8.24277015489676 0.7654662814552853
-160.4728789986092 -8.26009616612516 0.7630793157633828
-159.9721835883171 -8.277252531187267 0.7606828039954032
-159.47148817802503 -8.294238224498121 0.7582768388298375
-158.97079276773297 -8.311052220472748 0.7558615129451738
-158.4700973574409 -8.327693493526208 0.7534369190199004
-157.9694019471488 -8.344161018073525 0.751003149732508
-157.46870653685676 -8.360453768529746 0.7485602977614847
-156.96801112656468 -8.376570719309896 0.7461084557853215
-156.4673157162726 -8.392510844829022 0.7436477164825046
-155.96662030598054 -8.40827311950216 0.7411781725315265
-155.46592489568846 -8.423856517744351 0.7386999166108743
-154.96522948539638 -8.439260013970634 0.7362130413990373
-154.46453407510432 -8.454482582596038 0.7337176395745062
-153.96383866481224 -8.469523198035613 0.7312138038157685
-153.46314325452016 -8.484380834704389 0.7287016268013149
-152.9624478442281 -8.499054467017407 0.7261812012096329
-152.46175243393603 -8.513543069389709 0.7236526197192128
-151.96105702364395 -8.527845616236325 0.7211159750085443
-151.4603616133519 -8.541961081972298 0.7185713597561154
-150.9596662030598 -8.55588844101267 0.7160188666404164
-150.45897079276773 -8.569626667772472 0.7134585883399356
-149.95827538247568 -8.58317473666674 0.7108906175331624
-149.4575799721836 -8.596531622110525 0.708315046898587
-148.9568845618915 -8.609696298518857 0.7057319691146966
-148.45618915159943 -8.622667740306772 0.7031414768599826
-147.95549374130738 -8.635444921889317 0.7005436628129327
-147.4547983310153 -8.648026817681519 0.6979386196520374
-146.95410292072324 -8.660412402098421 0.6953264400557835
-146.45340751043116 -8.672600649555063 0.6927072167026638
-145.95271210013908 -8.684590534466484 0.6900810422711641
-145.452016689847 -8.696381031247714 0.6874480094397755
-144.95132127955495 -8.707971114313803 0.6848082108869873
-144.45062586926286 -8.719359758079785 0.6821617392912875
-143.94993045897078 -8.730545936960693 0.6795086873311655
-143.44923504867873 -8.741528625371574 0.6768491476851115
-142.94853963838665 -8.75230679772745 0.6741832130316157
-142.44784422809457 -8.762879428443373 0.6715109760491642
-141.9471488178025 -8.773245491934386 0.6688325294162478
-141.44645340751043 -8.783403962615518 0.6661479658113567
-140.94575799721835 -8.793353814901806 0.663457377912978
-140.44506258692627 -8.803094023208292 0.6607608583996027
-139.94436717663422 -8.81262356195001 0.6580584999497194
-139.44367176634213 -8.821941405542004 0.6553503952418178
-138.94297635605005 -8.83104652839931 0.6526366369543868
-138.442280945758 -8.839937904936965 0.6499173177659139
-137.94158553546592 -8.84861450957001 0.6471925303548907
-137.44089012517384 -8.857075316713479 0.6444623673998051
-136.94019471488178 -8.865319300782412 0.641726921579147
-136.4394993045897 -8.87334543619185 0.6389862855714052
-135.93880389429762 -8.881152697356825 0.6362405520550691
-135.43810848400557 -8.888740058692385 0.6334898137086289
-134.9374130737135 -8.896106494613557 0.6307341632105707
-134.4367176634214 -8.903250979535391 0.6279736932393862
-133.93602225312935 -8.910172487872911 0.6252084964735656
-133.43532684283727 -8.916869994041164 0.6224386655915954
-132.9346314325452 -8.923342472455186 0.6196642932719678
-132.43393602225314 -8.929588897530023 0.616885472193168
-131.93324061196105 -8.935608243680706 0.6141022950336885
-131.43254520166897 -8.94139948532227 0.6113148544720173
-130.93184979137692 -8.946961596869754 0.6085232431866454
-130.43115438108484 -8.952293552738205 0.6057275538560578
-129.93045897079276 -8.957394327342648 0.6029278791587482
-129.4297635605007 -8.962262895098132 0.6001243117732034
-128.92906815020862 -8.966898230419694 0.5973169443779134
-128.42837273991654 -8.971299307722365 0.5945058696513672
-127.92767732962449 -8.975465101421193 0.5916911802720537
-127.4269819193324 -8.979394585931209 0.5888729689184631
-126.92628650904032 -8.983086735667454 0.5860513282690825
-126.42559109874827 -8.986540525044964 0.5832263510024038
-125.92489568845619 -8.98975492847878 0.5803981297969147
-125.42420027816411 -8.992728920383938 0.5775667573311041
-124.92350486787205 -8.99546147517548 0.5747323262834616
-124.42280945757997 -8.997951567268439 0.5718949293324775
-123.92211404728789 -9.000198171077852 0.5690546591566399
-123.42141863699584 -9.002200261018768 0.5662116084344366
-122.92072322670376 -9.00395681150621 0.5633658698443607
-122.42002781641168 -9.005466796955233 0.5605175360648973
-121.91933240611961 -9.006729191780863 0.557666699774539
-121.41863699582754 -9.007742970398136 0.5548134536517719
-120.91794158553546 -9.008507107222103 0.5519578903750868
-120.41724617524339 -9.009020576667796 0.5491001026229738
-119.91655076495132 -9.00928235315025 0.5462401830739192
-119.41585535465924 -9.009291411084503 0.5433782244064163
-118.91515994436718 -9.009046724885595 0.5405143192989512
-118.41446453407511 -9.008547268968568 0.5376485604300143
-117.91376912378303 -9.007792017748455 0.5347810404780939
-117.41307371349096 -9.006779945640293 0.5319118521216808
-116.91237830319889 -9.005510027059128 0.5290410880392629
-116.41168289290681 -9.003981236419992 0.5261688409093304
-115.91098748261474 -9.00219254813793 0.5232952034103713
-115.41029207232268 -9.000142936627963 0.5204202682208758
-114.9095966620306 -8.997831376305149 0.517544128019332
-114.40890125173853 -8.995256841584519 0.5146668754842301
-113.90820584144646 -8.992418306881111 0.5117886032940597
-113.40751043115438 -8.989314746609962 0.5089094041273086
-112.90681502086231 -8.985945135186112 0.5060293706624668
-112.40611961057024 -8.982308447024591 0.5031485955780242
-111.90542420027816 -8.978403656540452 0.5002671715524678
-111.4047287899861 -8.974229738148722 0.49738519126428976
-110.90403337969401 -8.969785666264443 0.494502747391977
-110.40333796940195 -8.965070415302655 0.49161993261401943
-109.90264255910988 -8.960082959678392 0.48873683960890674
-109.4019471488178 -8.954822273806695 0.48585356105512784
-108.90125173852573 -8.949287332102603 0.4829701896311716
-108.40055632823366 -8.943477108981151 0.4800868180155287
-107.89986091794158 -8.937390578857384 0.4772035388866845
-107.39916550764951 -8.931026716146322 0.47432044492313313
-106.89847009735745 -8.924384495263029 0.4714376288033609
-106.39777468706536 -8.917462890622529 0.46855518320585704
-105.8970792767733 -8.910260876639859 0.46567320080911184
-105.39638386648123 -8.902777427730054 0.4627917742916146
-104.89568845618915 -8.895011518308166 0.45991099633185334
-104.39499304589708 -8.886962122789225 0.45703095960831736
-103.89429763560501 -8.878628215588268 0.4541517567994969
-103.39360222531293 -8.870008771120332 0.4512734805838821
-102.89290681502086 -8.861102763800464 0.4483962236399584
-102.3922114047288 -8.851909168043692 0.4455200786462182
-101.89151599443672 -8.842426958265063 0.44264513828114943
-101.39082058414465 -8.832655108879598 0.4397714952232437
-100.89012517385257 -8.822592594302362 0.43689924215098636
-100.3894297635605 -8.812238388948378 0.4340284717428689
-99.88873435326843 -8.801591467232674 0.43115927667738024
-99.38803894297635 -8.790650803570307 0.42829174963300837
-98.88734353268428 -8.779415372376308 0.4254259832882448
-98.38664812239222 -8.767884148065708 0.4225620703215776
-97.88595271210013 -8.756056105053556 0.4197001034114965
-97.38525730180807 -8.743930217754883 0.4168401752364895
-96.884561891516 -8.731505460584735 0.4139823784750463
-96.38386648122392 -8.718780807958147 0.4111268058056568
-95.88317107093185 -8.70575523429015 0.40827354990680803
-95.38247566063978 -8.692427713995789 0.4054227034569933
-94.8817802503477 -8.678797221490106 0.40257435913469714
-94.38108484005564 -8.664862731188135 0.3997286096184128
-93.88038942976357 -8.65062321750491 0.3968855475866256
-93.37969401947149 -8.636077654855475 0.3940452657178271
-92.87899860917942 -8.621225017654863 0.3912078566905071
-92.37830319888734 -8.606064280318119 0.3883734131831536
-91.87760778859527 -8.590594417260267 0.38554202787425634
-91.3769123783032 -8.574814402896362 0.3827137934423051
-90.87621696801112 -8.55872321164144 0.3798888025657879
-90.37552155771905 -8.542319817910524 0.37706714792319357
-89.87482614742699 -8.52560319611867 0.3742489221930128
-89.3741307371349 -8.508572320680917 0.3714342180537336
-88.87343532684284 -8.49122616601228 0.36862312818384485
-88.37273991655077 -8.473563706527822 0.3658157452618381
-87.87204450625869 -8.455583916642572 0.3630121619662022
-87.37134909596662 -8.437285770771568 0.3602124709754216
-86.87065368567455 -8.418668243329849 0.3574167649679914
-86.36995827538247 -8.399730308732451 0.354625136622397
-85.8692628650904 -8.38047094139441 0.3518376786171316
-85.36856745479834 -8.360889115730767 0.34905448363068153
-84.86787204450626 -8.340983806156569 0.34627564434153474
-84.36717663421419 -8.320753987086842 0.34350125342818366
-83.86648122392211 -8.300198632936624 0.3407314035691154
-83.36578581363004 -8.279316718120961 0.33796618744281975
-82.86509040333797 -8.25810721705489 0.3352056977277847
-82.36439499304589 -8.236569104153444 0.33245002710250354
-81.86369958275382 -8.21470135383167 0.32969926824546075
-81.36300417246176 -8.19250294050459 0.326953513835147
-80.86230876216968 -8.169972838587272 0.3242128565500511
-80.36161335187761 -8.147110022494717 0.3214773890686647
-79.86091794158554 -8.123913466641982 0.3187472040694748
-79.36022253129346 -8.100382145444112 0.3160223942309704
-78.85952712100139 -8.07651503331613 0.31330305223164384
-78.35883171070932 -8.052311104673091 0.3105892707499796
-77.85813630041724 -8.02776933393002 0.30788114246446924
-77.35744089012518 -8.00288869550195 0.30517876005360517
-76.85674547983311 -7.977668163803942 0.3024822161958692
-76.35605006954103 -7.952106713251011 0.29979160356975726
-75.85535465924896 -7.926203318258212 0.29710701485375474
-75.35465924895689 -7.899956953240567 0.29442854272635316
-74.85396383866481 -7.873366592613129 0.29175627986603964
-74.35326842837274 -7.846431210790927 0.2890903189513057
-73.85257301808066 -7.81914978218901 0.2864307526606385
-73.3518776077886 -7.791521281222391 0.28377767367252865
-72.85118219749653 -7.763544682306151 0.2811311746654633
-72.35048678720445 -7.735218959855285 0.2784913483179357
-71.84979137691238 -7.70654308828485 0.27585828730843126
-71.34909596662031 -7.677516042009888 0.27323208431543883
-70.84840055632823 -7.648136795445428 0.27061283201745084
-70.34770514603616 -7.6184043230065175 0.2680006230929562
-69.8470097357441 -7.588317599108196 0.2653955502204402
-69.34631432545201 -7.557875598165483 0.2627977060783953
-68.84561891515995 -7.527077294593434 0.2602071833453104
-68.34492350486788 -7.495921662807087 0.25762407469967524
-67.8442280945758 -7.464407677221468 0.25504847281997695
-67.34353268428373 -7.432534312251628 0.25248047038470706
-66.84283727399166 -7.4003005423126 0.24992016007235177
-66.34214186369958 -7.367705341819423 0.24736763456140268
-65.84144645340751 -7.334747685187132 0.24482298653035042
-65.34075104311543 -7.3014265468307755 0.24228630865768122
-64.84005563282336 -7.267740901165375 0.23975769362188395
-64.3393602225313 -7.233689722605979 0.23723723410144928
-63.838664812239216 -7.1992719855676395 0.23472502277486698
-63.33796940194715 -7.164486664465349 0.2322211523206277
-62.83727399165508 -7.129332733714206 0.22972571541721679
-62.336578581363 -7.093809167729203 0.22723880474312488
-61.83588317107093 -7.057914940925398 0.22476051297684177
-61.335187760778865 -7.021649027717826 0.2222909327968581
-60.834492350486784 -6.985010402521521 0.21983015688165744
-60.333796940194716 -6.947998039751521 0.21737827790973754
-59.83310152990265 -6.910610913822875 0.2149353885595802
-59.33240611961057 -6.872847999150618 0.2125015815096787
-58.8317107093185 -6.834708270149779 0.21007694943851843
-58.33101529902643 -6.796190701235412 0.20766158502459356
-57.83031988873435 -6.7572942668225355 0.20525558094639032
-57.329624478442284 -6.71801794132619 0.20285902988240026
-56.82892906815022 -6.678360699161432 0.20047202451111049
-56.328233657858135 -6.638321514743284 0.1980946575110081
-55.82753824756607 -6.59789936248678 0.19572702156058644
-55.326842837273986 -6.557093216806978 0.1933692093383326
-54.82614742698192 -6.515902052118898 0.19102131352273902
-54.32545201668985 -6.474324842837596 0.18868342679228836
-53.82475660639777 -6.43236056337809 0.18635564182547396
-53.3240611961057 -6.390008188155434 0.18403805130078646
-52.823365785813635 -6.34726669158465 0.1817307478967121
-52.322670375521554 -6.304135048080795 0.1794338242917424
-51.82197496522949 -6.260612232058904 0.17714737316436538
-51.321279554937405 -6.216697217933998 0.17487148719306814
-50.82058414464535 -6.172388980121125 0.17260625905634489
-50.31988873435327 -6.127686493035332 0.17035178143268007
-49.81919332406119 -6.082588731091638 0.168108147000567
-49.318497913769136 -6.037094668705107 0.16587544843849103
-48.817802503477054 -5.99120328029076 0.16365377842494191
-48.31710709318497 -5.944913540263633 0.1614432296384121
-47.81641168289292 -5.898224423038773 0.15924389475738868
-47.31571627260084 -5.8511349030312125 0.15705586646035877
-46.81502086230876 -5.803643954656 0.1548792374258148
-46.3143254520167 -5.755750552328163 0.15271410033224567
-45.81363004172462 -5.707453670462737 0.15056054785814024
-45.31293463143254 -5.658752283474765 0.1484186726819874
-44.81223922114049 -5.609645365779288 0.1462885674822734
-44.311543810848406 -5.560131891791352 0.1441703249374933
-43.810848400556324 -5.510210835925969 0.14206403772613155
-43.31015299026427 -5.4598811725982035 0.1399697985266806
-42.80945757997219 -5.4091418762230905 0.13788770001762576
-42.30876216968011 -5.357991921215644 0.13581783487746038
-41.808066759388026 -5.306430281990929 0.13376029578467066
-41.30737134909597 -5.254455932963985 0.13171517541774905
-40.80667593880389 -5.202067848549817 0.12968256645518175
-40.30598052851181 -5.149265003163492 0.12766256157545766
-39.80528511821976 -5.096046371220062 0.1256552534570692
-39.304589707927676 -5.042410927134526 0.12366073477850441
-38.803894297635594 -4.9883576453219405 0.12167909821824945
-38.30319888734354 -4.933885500197361 0.11971043645479855
-37.80250347705146 -4.878993466175791 0.11775484216663705
-37.30180806675938 -4.823680517672285 0.11581240803225472
-36.801112656467325 -4.7679456291019005 0.11388322673014221
-36.30041724617524 -4.711787774879644 0.11196739093878665
-35.79972183588316 -4.65520592942058 0.11006499333667956
-35.29902642559111 -4.598199067139728 0.10817612660230895
-34.79833101529903 -4.540766162452133 0.10630088341416281
-34.297635605006946 -4.48290618977283 0.10443935645073447
-33.79694019471489 -4.424618123516876 0.10259163839050926
-33.29624478442281 -4.365900938099269 0.10075782191197695
-32.79554937413073 -4.306753607935082 0.0989379996936282
-32.294853963838676 -4.2471751074393485 0.0971322644139501
-31.794158553546595 -4.1871644110271 0.09534070875143423
-31.293463143254513 -4.126720493113369 0.09356342538456679
-30.79276773296246 -4.065842328113208 0.09180050699184288
-30.29207232267038 -4.004528890441643 0.09005204625174427
-29.791376912378297 -3.9427791545137176 0.08831813584276431
-29.290681502086244 -3.8805920947444723 0.08659886844339186
-28.789986091794162 -3.817966685548939 0.08489433673211404
-28.28929068150208 -3.754901901342152 0.08320463338742416
-27.788595271210028 -3.6913967165391743 0.08152985108780934
-27.287899860917946 -3.627450105555021 0.07987008251175669
-26.787204450625865 -3.5630610428047267 0.07822542033775685
-26.28650904033381 -3.49822850270334 0.07659595724430317
-25.78581363004173 -3.4329514596658997 0.07498178590987829
-25.28511821974965 -3.3672288881074324 0.07338299901297467
-24.784422809457595 -3.301059762443009 0.07179968923208117
-24.283727399165514 -3.234443057087637 0.07023194924568492
-23.783031988873432 -3.1673777464563444 0.068679871732281
-23.28233657858135 -3.0998628049642085 0.0671435493703512
-22.781641168289298 -3.0318972070262373 0.06562307483838885
-22.280945757997216 -2.9634799270574743 0.06411854081488548
-21.780250347705135 -2.8946099394729754 0.06263003997832288
-21.27955493741308 -2.8252862186877548 0.0611576650071997
-20.778859527121 -2.755507739116855 0.05970150857999683
-20.27816411682892 -2.685273475175325 0.05826166337520848
-19.777468706536865 -2.6145824012782084 0.056838222071319985
-19.276773296244784 -2.5434334918405126 0.055431277346825555
-18.776077885952702 -2.471825721277315 0.05404092188021052
-18.27538247566065 -2.39975806400363 0.052667248349964654
-17.774687065368568 -2.327229494434493 0.051310349434578614
-17.273991655076486 -2.2542389869849604 0.049970317812540396
-16.773296244784433 -2.180785516070061 0.048647246162338884
-16.27260083449235 -2.1068680561048168 0.047341227162465624
-15.77190542420027 -2.0324855815042833 0.046052353491407724
-15.271210013908217 -1.9576370666834966 0.044780717827654956
-14.770514603616135 -1.882321486057514 0.043526412849694426
-14.269819193324054 -1.8065378140413273 0.04228953123601857
-13.769123783032 -1.7302850250500295 0.04107016566511627
-13.268428372739919 -1.6535620934986066 0.03986840881547464
-12.767732962447838 -1.5763679938021289 0.03868435336558522
-12.267037552155784 -1.4987017003756322 0.03751809199393423
-11.766342141863703 -1.4205621876341525 0.036369717379014996
-11.265646731571621 -1.3419484299927174 0.03523932219931285
-10.764951321279568 -1.2628594018663768 0.03412699913331933
-10.264255910987487 -1.1832940776701597 0.03303284085952156
-9.763560500695405 -1.1032514318191078 0.03195694005641107
-9.262865090403352 -1.0227304387282712 0.030899389402476756
-8.76216968011127 -0.9417300728126716 0.02986028157620661
-8.261474269819189 -0.8602493084873508 0.028839709256089512
-7.760778859527136 -0.778287120167366 0.027837765120615237
