Polar data for 2 at Re = 242857.14285714287
Alpha (deg) Cl Cd
-180.0 -8.621942285941223 0.8689634928400125
-179.49930458970792 -8.632216685825039 0.8669826974047814
-178.99860917941587 -8.64233726531824 0.8649877016427687
-178.49791376912378 -8.652303628739286 0.8629786053511406
-177.9972183588317 -8.66211538040664 0.8609555083270599
-177.49652294853965 -8.671772124638759 0.858918510367692
-176.99582753824757 -8.681273465754103 0.8568677112702006
-176.4951321279555 -8.690619008071131 0.8548032108317509
-175.99443671766343 -8.699808355908308 0.8527251088495069
-175.49374130737135 -8.70884111358409 0.8506335051206328
-174.99304589707927 -8.717716885416937 0.8485284994422948
-174.49235048678722 -8.726435275725308 0.8464101916116549
-173.99165507649514 -8.734995888827665 0.8442786814258796
-173.49095966620305 -8.74339832904247 0.8421340686821319
-172.990264255911 -8.751642200688178 0.8399764531775766
-172.48956884561892 -8.759727108083252 0.8378059347093789
-171.98887343532684 -8.767652655546154 0.8356226130747031
-171.48817802503476 -8.775418447395339 0.833426588070713
-170.9874826147427 -8.783024087949268 0.8312179594945743
-170.48678720445062 -8.790469181526404 0.8289968271434491
-169.98609179415854 -8.797753332445206 0.8267632908145048
-169.4853963838665 -8.80487614502413 0.8245174503049035
-168.9847009735744 -8.811837223581641 0.8222594054118109
-168.48400556328232 -8.818636172436198 0.819989255932392
-167.98331015299027 -8.825272595906261 0.8177071016638096
-167.4826147426982 -8.831746098310287 0.8154130424032291
-166.9819193324061 -8.838056283966738 0.8131071779478154
-166.48122392211405 -8.844202757194076 0.8107896080947319
-165.98052851182197 -8.850185122310759 0.8084604326411451
-165.4798331015299 -8.856002983635243 0.8061197513842167
-164.97913769123784 -8.861655945485994 0.8037676641211122
-164.47844228094576 -8.867143612181472 0.8014042706489979
-163.97774687065368 -8.872465588040132 0.7990296707650353
-163.47705146036162 -8.877621477380437 0.7966439642663905
-162.97635605006954 -8.882610884520847 0.7942472509502283
-162.47566063977746 -8.887433413779824 0.7918396306137125
-161.9749652294854 -8.892088669475822 0.7894212030540084
-161.47426981919332 -8.896576255927307 0.786992068068278
-160.97357440890124 -8.900895777452735 0.7845523254536888
-160.4728789986092 -8.905046838370568 0.7821020750074037
-159.9721835883171 -8.909029042999267 0.7796414165265879
-159.47148817802503 -8.912841995657288 0.7771704498084058
-158.97079276773297 -8.916485300663098 0.7746892746500207
-158.4700973574409 -8.919958562335147 0.7721979908485979
-157.9694019471488 -8.923261384991905 0.769696698201302
-157.46870653685676 -8.926393372951821 0.7671854965052971
-156.96801112656468 -8.929354130533369 0.7646644855577487
-156.4673157162726 -8.932143262054995 0.7621337651558193
-155.96662030598054 -8.934760371835168 0.759593435096676
-155.46592489568846 -8.937205064192344 0.7570435951774812
-154.96522948539638 -8.939476943444985 0.7544843451953998
-154.46453407510432 -8.94157561391155 0.7519157849475968
-153.96383866481224 -8.9435006799105 0.7493380142312354
-153.46314325452016 -8.94525174576029 0.7467511328434819
-152.9624478442281 -8.946828415779386 0.7441552405815004
-152.46175243393603 -8.948230294286251 0.7415504372424542
-151.96105702364395 -8.949456985599333 0.738936822623508
-151.4603616133519 -8.950508094037103 0.7363144965218267
-150.9596662030598 -8.951383223918015 0.7336835587345762
-150.45897079276773 -8.952081979560528 0.7310441090589175
-149.95827538247568 -8.952603965283108 0.7283962472920178
-149.4575799721836 -8.952948785404214 0.7257400732310411
-148.9568845618915 -8.9531160442423 0.7230756866731516
-148.45618915159943 -8.95310534611583 0.7204031874155141
-147.95549374130738 -8.952916295343265 0.7177226752552921
-147.4547983310153 -8.952548496243065 0.7150342499896516
-146.95410292072324 -8.952001553133684 0.7123380114157556
-146.45340751043116 -8.95127507033359 0.7096340593307684
-145.95271210013908 -8.950368652161236 0.7069224935318561
-145.452016689847 -8.94928190293509 0.7042034138161821
-144.95132127955495 -8.948014426973602 0.7014769199809125
-144.45062586926286 -8.946565828595244 0.698743111823209
-143.94993045897078 -8.944935712118463 0.6960020891402359
-143.44923504867873 -8.94312368186173 0.6932539517291618
-142.94853963838665 -8.941129342143496 0.6904987993871472
-142.44784422809457 -8.93895229728223 0.6877367319113585
-141.9471488178025 -8.936592151596384 0.6849678490989588
-141.44645340751043 -8.934048509404422 0.6821922507471145
-140.94575799721835 -8.9313209750248 0.6794100366529883
-140.44506258692627 -8.928409152775984 0.6766213066137452
-139.94436717663422 -8.925312646976433 0.6738261604265487
-139.44367176634213 -8.922031061944601 0.6710246978885668
-138.94297635605005 -8.918564001998952 0.66821701879696
-138.442280945758 -8.914911071457947 0.6654032229488951
-137.94158553546592 -8.911071874640047 0.6625834101415358
-137.44089012517384 -8.907046015863706 0.6597576801720451
-136.94019471488178 -8.902833099447392 0.6569261328375913
-136.4394993045897 -8.898432729709556 0.6540888679353334
-135.93880389429762 -8.893844510968666 0.6512459852624406
-135.43810848400557 -8.889068047543176 0.6483975846160754
-134.9374130737135 -8.884102943751552 0.6455437657934031
-134.4367176634214 -8.878948803912248 0.642684628591587
-133.93602225312935 -8.873605232343728 0.6398202728077929
-133.43532684283727 -8.86807183336445 0.6369507982391831
-132.9346314325452 -8.862348211292876 0.6340763046829256
-132.43393602225314 -8.856433970447458 0.6311968919361812
-131.93324061196105 -8.85032871514667 0.628312659796116
-131.43254520166897 -8.84403204970896 0.6254237080598959
-130.93184979137692 -8.837543578452795 0.6225301365246827
-130.43115438108484 -8.83086290569663 0.6196320449876425
-129.93045897079276 -8.82398963575893 0.6167295332459395
-129.4297635605007 -8.81692337295815 0.6138227010967372
-128.92906815020862 -8.80966372161275 0.6109116483372017
-128.42837273991654 -8.802210286041195 0.6079964747644973
-127.92767732962449 -8.794562670561943 0.6050772801757869
-127.4269819193324 -8.786720479493454 0.6021541643682362
-126.92628650904032 -8.778683317154183 0.5992272271390091
-126.42559109874827 -8.770450787862597 0.5962965682852712
-125.92489568845619 -8.762022495937149 0.5933622876041837
-125.42420027816411 -8.753398045696308 0.5904244848929159
-124.92350486787205 -8.744577041458523 0.5874832599486288
-124.42280945757997 -8.735559087542267 0.5845387125684882
-123.92211404728789 -8.726343788265986 0.5815909425496597
-123.42141863699584 -8.716930747948151 0.578640049689304
-122.92072322670376 -8.707319570907215 0.57568613378459
-122.42002781641168 -8.697509861461644 0.5727292946326774
-121.91933240611961 -8.687501223929894 0.5697696320307355
-121.41863699582754 -8.677293262630423 0.5668072457759263
-120.91794158553546 -8.666885581881692 0.5638422356654142
-120.41724617524339 -8.656277786002168 0.5608747014963644
-119.91655076495132 -8.645469479310304 0.5579047430659412
-119.41585535465924 -8.63446026612456 0.5549324601713084
-118.91515994436718 -8.623249750763398 0.5519579526096321
-118.41446453407511 -8.611837537545275 0.548981320178074
-117.91376912378303 -8.600223230788654 0.546002662673801
-117.41307371349096 -8.588406434811995 0.5430220798939771
-116.91237830319889 -8.576386753933761 0.540039671635766
-116.41168289290681 -8.564163792472403 0.5370555376963335
-115.91098748261474 -8.551737154746391 0.5340697778728434
-115.41029207232268 -8.539106445074175 0.5310824919624582
-114.9095966620306 -8.526271267774224 0.5280937797623448
-114.40890125173853 -8.51323122716499 0.5251037410696677
-113.90820584144646 -8.499985927564941 0.5221124756815911
-113.40751043115438 -8.48653497329253 0.5191200833952767
-112.90681502086231 -8.472877968666223 0.5161266640078932
-112.40611961057024 -8.459014518004473 0.513132317316604
-111.90542420027816 -8.444944225625749 0.5101371431185708
-111.4047287899861 -8.430666695848505 0.5071412412109615
-110.90403337969401 -8.416181532991198 0.5041447113909385
-110.40333796940195 -8.401488341372291 0.5011476534556663
-109.90264255910988 -8.386586725310249 0.49815016720231076
-109.4019471488178 -8.371476289123525 0.49515235242803546
-108.90125173852573 -8.356156637130583 0.49215430893000467
-108.40055632823366 -8.340627373649884 0.4891561365053845
-107.89986091794158 -8.324888102999882 0.48615793495133475
-107.39916550764951 -8.308938429499042 0.483159804065026
-106.89847009735745 -8.292777957465821 0.480161843643619
-106.39777468706536 -8.276406291218679 0.477164153484279
-105.8970792767733 -8.25982303507608 0.4741668333841711
-105.39638386648123 -8.243027793356482 0.47116998314045877
-104.89568845618915 -8.226020170378343 0.4681737025503072
-104.39499304589708 -8.208799770460127 0.46517809141087985
-103.89429763560501 -8.191366197920285 0.46218324951934275
-103.39360222531293 -8.173719057077289 0.45918927667286025
-102.89290681502086 -8.15585795224959 0.45619627266859486
-102.3922114047288 -8.137782487755654 0.45320433730371357
-101.89151599443672 -8.119492267913936 0.450213570375378
-101.39082058414465 -8.1009868970429 0.4472240716807552
-100.89012517385257 -8.082265979461003 0.44423594101700936
-100.3894297635605 -8.063329119486706 0.441249278181304
-99.88873435326843 -8.044175921438466 0.4382641829708034
-99.38803894297635 -8.024805989634746 0.43528075518267184
-98.88734353268428 -8.005218928394012 0.43229909461407456
-98.38664812239222 -7.985414342034716 0.4293193010621785
-97.88595271210013 -7.965391834875316 0.4263414743241427
-97.38525730180807 -7.94515101123428 0.42336571419713587
-96.884561891516 -7.924691475430063 0.42039212047832053
-96.38386648122392 -7.904012831781122 0.417420792964861
-95.88317107093185 -7.883114684605923 0.41445183145392517
-95.38247566063978 -7.861996638222923 0.411485335742672
-94.8817802503477 -7.840658296950581 0.40852140562826933
-94.38108484005564 -7.819099265107365 0.4055601409078815
-93.88038942976357 -7.797319147011724 0.40260164137867194
-93.37969401947149 -7.775317546982123 0.3996460068378058
-92.87899860917942 -7.7530940693370205 0.39669333708244836
-92.37830319888734 -7.730648318394877 0.3937437319097621
-91.87760778859527 -7.707979898474154 0.3907972911169131
-91.3769123783032 -7.685088413893311 0.38785411450106566
-90.87621696801112 -7.6619734689708086 0.38491430185938325
-90.37552155771905 -7.638634668025102 0.3819779529890319
-89.87482614742699 -7.6150716153746565 0.3790451676871751
-89.3741307371349 -7.591283915337932 0.37611604575097446
-88.87343532684284 -7.567271172233381 0.3731906869776014
-88.37273991655077 -7.543032990379471 0.3702691911642131
-87.87204450625869 -7.518568974094665 0.367351658107981
-87.37134909596662 -7.493878727697414 0.3644381876060614
-86.87065368567455 -7.468961855506183 0.3615288794556266
-86.36995827538247 -7.443817961839432 0.3586238334538365
-85.8692628650904 -7.418446651015616 0.3557231493978572
-85.36856745479834 -7.392847527353199 0.35282692708485297
-84.86787204450626 -7.367020195170644 0.34993526631198635
-84.36717663421419 -7.340964258786405 0.3470482668764243
-83.86648122392211 -7.314679322518948 0.3441660285753321
-83.36578581363004 -7.288164990686731 0.34128865120587126
-82.86509040333797 -7.261420867608209 0.338416234565208
-82.36439499304589 -7.234446557601849 0.3355488784505065
-81.86369958275382 -7.207241664986103 0.3326866826589303
-81.36300417246176 -7.179805794079435 0.32982974698764544
-80.86230876216968 -7.152138549200311 0.32697817123381356
-80.36161335187761 -7.124239534667186 0.3241320551946043
-79.86091794158554 -7.0961083547985115 0.32129149866717754
-79.36022253129346 -7.067744613912765 0.31845660144870025
-78.85952712100139 -7.0391479163283925 0.31562746333633585
-78.35883171070932 -7.010317866363856 0.31280418412724686
-77.85813630041724 -6.981254068337618 0.30998686361860117
-77.35744089012518 -6.95195612656814 0.3071756016075631
-76.85674547983311 -6.922423645373879 0.30437049789129245
-76.35605006954103 -6.8926562290733 0.3015716522669598
-75.85535465924896 -6.862653481984859 0.2987791645317259
-75.35465924895689 -6.832415008427011 0.2959931344827569
-74.85396383866481 -6.801940412718228 0.2932136619172152
-74.35326842837274 -6.771229299176953 0.29044084663226966
-73.85257301808066 -6.740281272121662 0.2876747884250783
-73.3518776077886 -6.70909593587081 0.28491558709281084
-72.85118219749653 -6.677672894742857 0.28216334243262975
-72.35048678720445 -6.646011753056257 0.27941815424169936
-71.84979137691238 -6.614112115129478 0.2766801223171831
-71.34909596662031 -6.581973585280975 0.27394934645625146
-70.84840055632823 -6.549595767829214 0.2712259264560599
-70.34770514603616 -6.516978267092645 0.26850996211377987
-69.8470097357441 -6.484120687389739 0.2658015532265712
-69.34631432545201 -6.451022633038944 0.26310079959159993
-68.84561891515995 -6.417683708358734 0.260407801006034
-68.34492350486788 -6.384103517667562 0.25772265726703236
-67.8442280945758 -6.35028166528388 0.255045468171762
-67.34353268428373 -6.316217755526157 0.25237633351738986
-66.84283727399166 -6.281911392712857 0.24971535310107584
-66.34214186369958 -6.247362181162428 0.2470626267199869
-65.84144645340751 -6.212569725193342 0.2444182541712865
-65.34075104311543 -6.177533629124055 0.24178233525213977
-64.84005563282336 -6.142253497273018 0.23915496975971196
-64.3393602225313 -6.1067289339587045 0.23653625749116647
-63.838664812239216 -6.070959543499564 0.23392629824366762
-63.33796940194715 -6.034944930214058 0.2313251918143815
-62.83727399165508 -5.998684698420657 0.22873303800046973
-62.336578581363 -5.962178452437811 0.22614993659909666
-61.83588317107093 -5.925425796583978 0.2235759874074319
-61.335187760778865 -5.888426335177625 0.2210112902226371
-60.834492350486784 -5.851179672537214 0.21845594484187214
-60.333796940194716 -5.81368541298119 0.21591005106230932
-59.83310152990265 -5.7759431608280245 0.2133737086811076
-59.33240611961057 -5.737952520396185 0.21084701749543577
-58.8317107093185 -5.6997130960041105 0.20833007730245012
-58.33101529902643 -5.66122449197028 0.20582298789932296
-57.83031988873435 -5.622486312613148 0.2033258490832177
-57.329624478442284 -5.583498162251168 0.20083876065129957
-56.82892906815022 -5.544259645202811 0.19836182240072753
-56.328233657858135 -5.5047703657865235 0.19589513412867032
-55.82753824756607 -5.465029928320771 0.19343879563229138
-55.326842837273986 -5.425037937124021 0.19099290670875768
-54.82614742698192 -5.3847939965147305 0.1885575671552282
-54.32545201668985 -5.344297710811347 0.1861328767688717
-53.82475660639777 -5.303548684332348 0.18371893534685424
-53.3240611961057 -5.262546521396182 0.18131584268633483
-52.823365785813635 -5.221290826321312 0.17892369858448132
-52.322670375521554 -5.179781203426199 0.17654260283845802
-51.82197496522949 -5.138017257029304 0.17417265524542924
-51.321279554937405 -5.0959985914490815 0.17181395560255663
-50.82058414464535 -5.0537248110040025 0.16946660370700983
-50.31988873435327 -5.011195520012514 0.16713069935595048
-49.81919332406119 -4.96841032279308 0.1648063423465438
-49.318497913769136 -4.925368823664165 0.16249363247595494
-48.817802503477054 -4.882070626944227 0.1601926695413438
-48.31710709318497 -4.838515336951719 0.15790355333987827
-47.81641168289292 -4.794702558005117 0.15562638366872528
-47.31571627260084 -4.75063189442287 0.1533612603250456
-46.81502086230876 -4.70630295052343 0.15110828310600533
-46.3143254520167 -4.66171533062527 0.14886755180876787
-45.81363004172462 -4.616868639046846 0.14663916623049933
-45.31293463143254 -4.571762480106617 0.144423226168364
-44.81223922114049 -4.526396458123049 0.14221983141952355
-44.311543810848406 -4.480770177414595 0.14002908178114404
-43.810848400556324 -4.434883242299708 0.13785107705039157
-43.31015299026427 -4.388735257096869 0.13568591702442956
-42.80945757997219 -4.342325826124526 0.13353370150042054
-42.30876216968011 -4.295654553701127 0.13139453027553238
-41.808066759388026 -4.248721044145146 0.12926850314692762
-41.30737134909597 -4.201524901775052 0.12715571991177055
-40.80667593880389 -4.154065730909277 0.12505628036722727
-40.30598052851181 -4.1063431358663 0.12297028431045942
-39.80528511821976 -4.058356720964596 0.12089783153863398
-39.304589707927676 -4.010106090522594 0.11883902184891526
-38.803894297635594 -3.961590848858766 0.1167939550384649
-38.30319888734354 -3.9128106002915826 0.11476273090445344
-37.80250347705146 -3.863764949139487 0.11274544924403807
-37.30180806675938 -3.814453499720941 0.11074220985438576
-36.801112656467325 -3.764875856354426 0.10875311253266529
-36.30041724617524 -3.7150316233583713 0.1067782570760365
-35.79972183588316 -3.6649204050512556 0.10481774328166282
-35.29902642559111 -3.6145418057515433 0.10287167094671301
-34.79833101529903 -3.5638954297776775 0.10094013986834871
-34.297635605006946 -3.5129808814481263 0.09902324984373512
-33.79694019471489 -3.461797765081361 0.09712110067003654
-33.29624478442281 -3.410345684995822 0.09523379214441907
-32.79554937413073 -3.3586242455099726 0.09336142406404346
-32.294853963838676 -3.3066330509422923 0.09150409622607847
-31.794158553546595 -3.2543717056112134 0.08966190842768484
-31.293463143254513 -3.201839813835211 0.08783496046603134
-30.79276773296246 -3.1490369799327564 0.08602335213827783
-30.29207232267038 -3.095962808222279 0.08422718324159129
-29.791376912378297 -3.0426169030222607 0.08244655357313335
-29.290681502086244 -2.9889988686511733 0.08068156293007367
-28.789986091794162 -2.9351083094274455 0.078932311109573
-28.28929068150208 -2.8809448296695455 0.07719889790879653
-27.788595271210028 -2.826508033695959 0.07548142312491124
-27.287899860917946 -2.7717975258251113 0.07377998655507612
-26.787204450625865 -2.7168129103754812 0.07209468799645813
-26.28650904033381 -2.6615537916655367 0.07042562724622603
-25.78581363004173 -2.606019774013714 0.0687729041015388
-25.28511821974965 -2.550210461738484 0.06713661835956342
-24.784422809457595 -2.494125459158323 0.0655168698174633
-24.283727399165514 -2.437764370591666 0.06391375827240187
-23.783031988873432 -2.3811268003569777 0.062327383521547874
-23.28233657858135 -2.3242123527727334 0.06075784536205853
-22.781641168289298 -2.26702063215738 0.05920524359110613
-22.280945757997216 -2.2095512428293778 0.05766967800585143
-21.780250347705135 -2.1518037891071953 0.05615124840345698
-21.27955493741308 -2.0937778753092897 0.054650054581090624
-20.778859527121 -2.0354731057541113 0.05316619633591668
-20.27816411682892 -1.9768890847601246 0.051699773465098575
-19.777468706536865 -1.918025416645801 0.050250885765798836
-19.276773296244784 -1.8588817057295803 0.048819633035187104
-18.776077885952702 -1.799457556329941 0.04740611507042236
-18.27538247566065 -1.7397525727653371 0.04601043166867247
-17.774687065368568 -1.6797663593542187 0.04463268262709996
-17.273991655076486 -1.6194985204150574 0.04327296774286826
-16.773296244784433 -1.558948660266314 0.04193138681314612
-16.27260083449235 -1.498116383226439 0.04060803963509607
-15.77190542420027 -1.4370012936139003 0.039303026005881536
-15.271210013908217 -1.3756029957471587 0.0380164457226686
-14.770514603616135 -1.3139210939446682 0.03674839858261891
-14.269819193324054 -1.2519551925248895 0.035498984382899446
-13.769123783032 -1.1897048958062908 0.03426830292067273
-13.268428372739919 -1.1271698081073116 0.03305645399310486
-12.767732962447838 -1.0643495337464306 0.03186353739736103
-12.267037552155784 -1.0012436770421087 0.030689652930603772
-11.766342141863703 -0.9378518423127962 0.029534900389999175
-11.265646731571621 -0.874173633876961 0.028399379572708883
-10.764951321279568 -0.8102086560530606 0.027283190275902536
-10.264255910987487 -0.7459565131595451 0.026186432296739115
-9.763560500695405 -0.6814168095148863 0.02510920543238737
-9.262865090403352 -0.6165891494375377 0.024051609480006286
-8.76216968011127 -0.5514731372459676 0.023013744236766387
-8.261474269819189 -0.48606837725862606 0.021995709499830207
