Polar data for 2 at Re = 202857.14285714287
Alpha (deg) Cl Cd
-180.0 -10.022884481012236 0.9228687919720946
-179.49930458970792 -10.032856741558042 0.9207891571167972
-178.99860917941587 -10.042652368446733 0.918694453770893
-178.49791376912378 -10.052270989730896 0.9165847867750314
-177.9972183588317 -10.061712233463101 0.9144602609698655
-177.49652294853965 -10.070975727695929 0.9123209811960467
-176.99582753824757 -10.080061100481954 0.9101670522942256
-176.4951321279555 -10.088967979873756 0.907998579105054
-175.99443671766343 -10.097695993923912 0.9058156664691841
-175.49374130737135 -10.106244770684999 0.9036184192272663
-174.99304589707927 -10.114613938209596 0.9014069422199531
-174.49235048678722 -10.122803124550279 0.8991813402878945
-173.99165507649514 -10.130811957759622 0.8969417182717436
-173.49095966620305 -10.138640065890211 0.8946881810121508
-172.990264255911 -10.146287076994614 0.8924208333497672
-172.48956884561892 -10.153752619125417 0.8901397801252455
-171.98887343532684 -10.161036320335189 0.887845126179237
-171.48817802503476 -10.16813780867651 0.8855369763523921
-170.9874826147427 -10.175056712201963 0.8832154354853639
-170.48678720445062 -10.181792658964119 0.8808806084188012
-169.98609179415854 -10.188345277015555 0.8785325999933582
-169.4853963838665 -10.194714194408855 0.8761715150496847
-168.9847009735744 -10.20089903919659 0.8737974584284334
-168.48400556328232 -10.206899439431343 0.871410534970255
-167.98331015299027 -10.212715023165684 0.8690108495158009
-167.4826147426982 -10.218345418452197 0.8665985069057227
-166.9819193324061 -10.223790253343454 0.8641736119806718
-166.48122392211405 -10.229049155892033 0.8617362695812998
-165.98052851182197 -10.234121754150522 0.8592865845482585
-165.4798331015299 -10.239007676171482 0.8568246617221982
-164.97913769123784 -10.243706550007504 0.8543506059437711
-164.47844228094576 -10.248218003711155 0.8518645220536298
-163.97774687065368 -10.252541665335018 0.849366514892423
-163.47705146036162 -10.256677162931672 0.8468566893008045
-162.97635605006954 -10.260624124553688 0.8443351501194252
-162.47566063977746 -10.264382178253653 0.8418020021889372
-161.9749652294854 -10.267950952084133 0.8392573503499909
-161.47426981919332 -10.27133007409771 0.8367012994432363
-160.97357440890124 -10.274519172346968 0.8341339543093278
-160.4728789986092 -10.277517874884474 0.8315554197889161
-159.9721835883171 -10.280325809762815 0.8289658007226508
-159.47148817802503 -10.28294260503456 0.8263652019511853
-158.97079276773297 -10.285367888752292 0.8237537283151724
-158.4700973574409 -10.287601288968583 0.82113148465526
-157.9694019471488 -10.289642433736013 0.8184985758121017
-157.46870653685676 -10.291490951107164 0.8158551066263475
-156.96801112656468 -10.293146469134607 0.8132011819386509
-156.4673157162726 -10.294608615870922 0.8105369065896617
-155.96662030598054 -10.295877019368687 0.8078623854200326
-155.46592489568846 -10.296951307680478 0.8051777232704149
-154.96522948539638 -10.297831108858874 0.8024830249814581
-154.46453407510432 -10.298516050956449 0.7997783953938151
-153.96383866481224 -10.299005762025788 0.7970639393481382
-153.46314325452016 -10.299299870119457 0.7943397616850791
-152.9624478442281 -10.29939800329004 0.7916059672452878
-152.46175243393603 -10.299299789590117 0.7888626608694158
-151.96105702364395 -10.29900485707226 0.7861099473981137
-151.4603616133519 -10.29851283378905 0.7833479316720358
-150.9596662030598 -10.297823347793063 0.7805767185318315
-150.45897079276773 -10.296936027136875 0.7777964128181527
-149.95827538247568 -10.295850499873067 0.7750071193716515
-149.4575799721836 -10.29456639405421 0.7722089430329777
-148.9568845618915 -10.29308333773289 0.7694019886427841
-148.45618915159943 -10.291400958961678 0.7665863610417227
-147.95549374130738 -10.289518885793152 0.7637621650704431
-147.4547983310153 -10.287436746279893 0.7609295055695984
-146.95410292072324 -10.285154168474474 0.7580884873798401
-146.45340751043116 -10.282670780429477 0.7552392153418184
-145.95271210013908 -10.279986210197475 0.7523817942961848
-145.452016689847 -10.277100085831044 0.7495163290835911
-144.95132127955495 -10.274012035382771 0.7466429245446895
-144.45062586926286 -10.270721686905222 0.7437616855201317
-143.94993045897078 -10.267228668450985 0.7408727168505671
-143.44923504867873 -10.263532608072625 0.7379761233766493
-142.94853963838665 -10.259633133822732 0.73507200993903
-142.44784422809457 -10.255529873753874 0.7321604813783582
-141.9471488178025 -10.25122245591863 0.7292416425352866
-141.44645340751043 -10.246710508369583 0.7263155982504659
-140.94575799721835 -10.241993659159304 0.7233824533645501
-140.44506258692627 -10.237071536340375 0.7204423127181883
-139.94436717663422 -10.23194376796537 0.7174952811520339
-139.44367176634213 -10.226609982086869 0.7145414635067369
-138.94297635605005 -10.221069806757448 0.7115809646229481
-138.442280945758 -10.215322870029683 0.7086138893413201
-137.94158553546592 -10.209368799956158 0.7056403425025042
-137.44089012517384 -10.20320722458944 0.7026604289471512
-136.94019471488178 -10.196837771982109 0.6996742535159151
-136.4394993045897 -10.190260070186753 0.6966819210494439
-135.93880389429762 -10.183473747255936 0.6936835363883904
-135.43810848400557 -10.176478431242243 0.6906792043734062
-134.9374130737135 -10.169273750198249 0.6876690298451436
-134.4367176634214 -10.161859332176528 0.6846531176442527
-133.93602225312935 -10.154234805229668 0.681631572611386
-133.43532684283727 -10.146399797410234 0.678604499587194
-132.9346314325452 -10.13835393677081 0.6755720034123291
-132.43393602225314 -10.130096851363973 0.6725341889274412
-131.93324061196105 -10.121628169242298 0.6694911609731837
-131.43254520166897 -10.112947518458368 0.6664430243902071
-130.93184979137692 -10.104054527064749 0.6633898840191634
-130.43115438108484 -10.094948823114033 0.6603318447007032
-129.93045897079276 -10.085630034658784 0.6572690112754784
-129.4297635605007 -10.076097789751591 0.6542014885841405
-128.92906815020862 -10.066351716445022 0.6511293814673411
-128.42837273991654 -10.056391442791657 0.6480527947657311
-127.92767732962449 -10.046216596844081 0.6449718333199621
-127.4269819193324 -10.035826806654859 0.6418866019706859
-126.92628650904032 -10.025221700276573 0.6387972055585533
-126.42559109874827 -10.014400905761807 0.6357037489242188
-125.92489568845619 -10.00336405116313 0.632606336908329
-125.42420027816411 -9.992110764533125 0.629505074351538
-124.92350486787205 -9.980640673924364 0.626400066094497
-124.42280945757997 -9.96895340738943 0.6232914169778574
-123.92211404728789 -9.957048592980895 0.6201792318422716
-123.42141863699584 -9.944925858751338 0.6170636155283897
-122.92072322670376 -9.932584832753342 0.6139446728768634
-122.42002781641168 -9.920025143039476 0.6108225087283443
-121.91933240611961 -9.907246417662325 0.6076972279234842
-121.41863699582754 -9.89424828467446 0.604568935302934
-120.91794158553546 -9.881030372128457 0.6014377357073462
-120.41724617524339 -9.867592308076903 0.5983037339773707
-119.91655076495132 -9.853933720572366 0.5951670349536602
-119.41585535465924 -9.840054237667433 0.5920277434768655
-118.91515994436718 -9.825953487414669 0.5888859643876383
-118.41446453407511 -9.811631097866657 0.5857418025266294
-117.91376912378303 -9.797086697075981 0.5825953627344915
-117.41307371349096 -9.78231991309521 0.5794467498518763
-116.91237830319889 -9.767330373976927 0.5762960687194345
-116.41168289290681 -9.752117707773701 0.573143424177817
-115.91098748261474 -9.736681542538118 0.5699889210676747
-115.41029207232268 -9.721021506322751 0.566832664229661
-114.9095966620306 -9.705137227180176 0.5636747585044268
-114.40890125173853 -9.689028333162979 0.5605153087326229
-113.90820584144646 -9.672694452323725 0.557354419754901
-113.40751043115438 -9.656135212714998 0.5541921964119128
-112.90681502086231 -9.639350242389382 0.55102874354431
-112.40611961057024 -9.62233916939944 0.5478641659927426
-111.90542420027816 -9.605101621797763 0.5446985685978631
-111.4047287899861 -9.587637227636916 0.5415320562003252
-110.90403337969401 -9.569945614969484 0.5383647336407751
-110.40333796940195 -9.552026411848047 0.5351967057598699
-109.90264255910988 -9.533879246325172 0.5320280773982569
-109.4019471488178 -9.515503746453449 0.5288589533965904
-108.90125173852573 -9.496899540285446 0.5256894385955186
-108.40055632823366 -9.478066255873747 0.522519637835696
-107.89986091794158 -9.45900352127092 0.5193496559577733
-107.39916550764951 -9.439710964529551 0.5161795978024022
-106.89847009735745 -9.420188213702218 0.5130095682102318
-106.39777468706536 -9.400434896841489 0.5098396720219165
-105.8970792767733 -9.380450641999952 0.5066700140781062
-105.39638386648123 -9.360235077230177 0.5035006992194553
-104.89568845618915 -9.339787830584742 0.5003318322866093
-104.39499304589708 -9.319108530116234 0.49716351812022525
-103.89429763560501 -9.298196803877216 0.49399586156095215
-103.39360222531293 -9.277052279920271 0.4908289674494409
-102.89290681502086 -9.255674586297983 0.4876629406263449
-102.3922114047288 -9.234063351062925 0.4844978859323151
-101.89151599443672 -9.21221820226767 0.48133390820799954
-101.39082058414465 -9.190138767964799 0.47817111229405446
-100.89012517385257 -9.16782467620689 0.47500960303112977
-100.3894297635605 -9.14527555504652 0.4718494852598754
-99.88873435326843 -9.122491032536265 0.4686908638209449
-99.38803894297635 -9.099470736728703 0.465533843554989
-98.88734353268428 -9.076214295676412 0.4623785293026595
-98.38664812239222 -9.052721337431972 0.4592250259046063
-97.88595271210013 -9.028991490047952 0.456073438201482
-97.38525730180807 -9.00502438157694 0.45292387103393833
-96.884561891516 -8.980819640071507 0.4497764292426261
-96.38386648122392 -8.95637689358423 0.4466312176681971
-95.88317107093185 -8.931695770167691 0.4434883411513038
-95.38247566063978 -8.906775897874459 0.44034790453259537
-94.8817802503477 -8.881616904757118 0.43721001265272436
-94.38108484005564 -8.85621841886825 0.4340747703523425
-93.88038942976357 -8.830580068260423 0.4309422824721015
-93.37969401947149 -8.804701480986216 0.42781265385265127
-92.87899860917942 -8.77858228509821 0.42468598933464624
-92.37830319888734 -8.752222108648985 0.42156239375873455
-91.87760778859527 -8.725620579691109 0.4184419719655706
-91.3769123783032 -8.698777326277161 0.4153248287958034
-90.87621696801112 -8.67169197645973 0.4122110690900865
-90.37552155771905 -8.64436415829138 0.4091007976890689
-89.87482614742699 -8.616793499824693 0.40599411943340497
-89.3741307371349 -8.58897962911225 0.40289113916374203
-88.87343532684284 -8.560922174206626 0.3997919617207371
-88.37273991655077 -8.532620763160397 0.3966966919450366
-87.87204450625869 -8.504075024026141 0.39360543467729575
-87.37134909596662 -8.47528458485643 0.39051829475816185
-86.87065368567455 -8.446249073703855 0.38743537702829284
-86.36995827538247 -8.41696811862098 0.3843567863283324
-85.8692628650904 -8.38744134766039 0.38128262749893765
-85.36856745479834 -8.357668388874663 0.37821300538075847
-84.86787204450626 -8.327648870316368 0.3751480248144457
-84.36717663421419 -8.297382420038089 0.3720877906406493
-83.86648122392211 -8.266868666092401 0.3690324077000254
-83.36578581363004 -8.236107236531891 0.36598198083322214
-82.86509040333797 -8.205097759409119 0.3629366148808913
-82.36439499304589 -8.173839862776676 0.35989641468368366
-81.86369958275382 -8.142333174687133 0.35686148508225185
-81.36300417246176 -8.110577323193064 0.3538319309172467
-80.86230876216968 -8.078571936347059 0.350807857029319
-80.36161335187761 -8.046316642201687 0.34778936825912404
-79.86091794158554 -8.013811068809522 0.3447765694473082
-79.36022253129346 -7.98105484422315 0.341769565434525
-78.85952712100139 -7.948047596495146 0.33876846106142794
-78.35883171070932 -7.914788953678078 0.33577336116866513
-77.85813630041724 -7.881278543824534 0.332784370596891
-77.35744089012518 -7.84751599498709 0.32980159418675453
-76.85674547983311 -7.81350093521832 0.3268251367789066
-76.35605006954103 -7.779232992570799 0.3238551032140025
-75.85535465924896 -7.744711795097116 0.32089159833269126
-75.35465924895689 -7.709936970849833 0.3179347269756237
-74.85396383866481 -7.674908147881544 0.3149845939834515
-74.35326842837274 -7.639624954244811 0.31204130419682735
-73.85257301808066 -7.6040870179922155 0.309104962456402
-73.3518776077886 -7.568293967176347 0.306175673602829
-72.85118219749653 -7.532245429849764 0.3032535424767547
-72.35048678720445 -7.49594103406506 0.30033867391883434
-71.84979137691238 -7.459380407874798 0.2974311727697197
-71.34909596662031 -7.42256317933157 0.2945311438700616
-70.84840055632823 -7.38548897648794 0.2916386920605108
-70.34770514603616 -7.348157427396496 0.2887539221817191
-69.8470097357441 -7.310568160109808 0.2858769390743355
-69.34631432545201 -7.272720802680455 0.28300784757901615
-68.84561891515995 -7.234614983161022 0.280146752536411
-68.34492350486788 -7.196250329604075 0.27729375878716916
-67.8442280945758 -7.157626470062192 0.27444897117194406
-67.34353268428373 -7.118743032587966 0.2716124945313883
-66.84283727399166 -7.079599645233957 0.2687844337061492
-66.34214186369958 -7.040195936052745 0.26596489353688374
-65.84144645340751 -7.0005315330969164 0.26315397886423747
-65.34075104311543 -6.960606064419045 0.26035179452886564
-64.84005563282336 -6.9204191580717005 0.25755844537142
-64.3393602225313 -6.879970442107469 0.2547740362325504
-63.838664812239216 -6.839259544578928 0.25199867195290954
-63.33796940194715 -6.798286093538644 0.24923245737314909
-62.83727399165508 -6.757049717039207 0.24647549733391633
-62.336578581363 -6.715550043133193 0.2437278966758683
-61.83588317107093 -6.673786699873167 0.24098976023965407
-61.335187760778865 -6.631759315311724 0.23826119286592623
-60.834492350486784 -6.589467517501431 0.23554229939533294
-60.333796940194716 -6.546910934494862 0.2328331846685286
-59.83310152990265 -6.504089194344603 0.230133953526164
-59.33240611961057 -6.461001925103231 0.22744471080889178
-58.8317107093185 -6.4176487548233165 0.22476556135736098
-58.33101529902643 -6.374029311557441 0.22209661001222508
-57.83031988873435 -6.330143223358187 0.21943796161413315
-57.329624478442284 -6.285990118278116 0.21678972100374133
-56.82892906815022 -6.241569624369822 0.21415199302169424
-56.328233657858135 -6.196881369685878 0.21152488250864893
-55.82753824756607 -6.151924982278855 0.2089084943052571
-55.326842837273986 -6.1067000902013415 0.20630293325216603
-54.82614742698192 -6.061206321505901 0.20370830419002922
-54.32545201668985 -6.015443304245119 0.2011247119594966
-53.82475660639777 -5.9694106664715765 0.19855226140122434
-53.3240611961057 -5.923108036237844 0.19599105735585792
-52.823365785813635 -5.876535041596506 0.1934412046640544
-52.322670375521554 -5.829691310600127 0.19090280816646193
-51.82197496522949 -5.782576471301303 0.18837597270373135
-51.321279554937405 -5.7351901517525885 0.18586080311651526
-50.82058414464535 -5.687531980006581 0.18335740424546626
-50.31988873435327 -5.63960158411585 0.18086588093123251
-49.81919332406119 -5.59139859213297 0.17838633801447107
-49.318497913769136 -5.5429226321105265 0.1759188803358292
-48.817802503477054 -5.49417333210109 0.17346361273595773
-48.31710709318497 -5.445150320157234 0.17102064005551015
-47.81641168289292 -5.395853224331551 0.1685900671351373
-47.31571627260084 -5.346281672676609 0.16617199881549177
-46.81502086230876 -5.296435293244977 0.16376653993722085
-46.3143254520167 -5.246313714089245 0.16137379534098245
-45.81363004172462 -5.19591656326199 0.15899386986742298
-45.31293463143254 -5.14524346881578 0.1566268683571968
-44.81223922114049 -5.094294058803202 0.1542728956509521
-44.311543810848406 -5.043067961276828 0.1519320565893441
-43.810848400556324 -4.991564804289231 0.14960445601302103
-43.31015299026427 -4.939784215893001 0.147290198762639
-42.80945757997219 -4.887725824140711 0.14498938967884173
-42.30876216968011 -4.835389257084925 0.14270213360228895
-41.808066759388026 -4.782774142778239 0.14042853537362615
-41.30737134909597 -4.7298801092732266 0.1381686998335077
-40.80667593880389 -4.676706784622452 0.13592273182258535
-40.30598052851181 -4.623253796878503 0.1336907361815099
-39.80528511821976 -4.569520774093968 0.13147281775093128
-39.304589707927676 -4.515507344321401 0.1292690813715039
-38.803894297635594 -4.46121313561339 0.1270796318838759
-38.30319888734354 -4.406637776022526 0.12490457412870075
-37.80250347705146 -4.35178089360136 0.1227440129466311
-37.30180806675938 -4.296642116402479 0.12059805317831333
-36.801112656467325 -4.24122107247848 0.11846679966440714
-36.30041724617524 -4.185517389881911 0.11635035724555624
-35.79972183588316 -4.129530696665364 0.11424883076241503
-35.29902642559111 -4.073260620881429 0.11216232505563699
-34.79833101529903 -4.016706790582651 0.1100909449658685
-34.297635605006946 -3.9598688338216355 0.10803479533376663
-33.79694019471489 -3.9027463786509613 0.1059939809999813
-33.29624478442281 -3.8453390531231704 0.10396860680516155
-32.79554937413073 -3.7876464852908795 0.10195877758995912
-32.294853963838676 -3.7296683032066595 0.09996459819502838
-31.794158553546595 -3.6714041349230597 0.09798617346101839
-31.293463143254513 -3.6128536084926863 0.09602360822858262
-30.79276773296246 -3.5540163519681136 0.09407700733836925
-30.29207232267038 -3.494891993401898 0.09214647563103533
-29.791376912378297 -3.4354801608466388 0.09023211794722456
-29.290681502086244 -3.3757804823549242 0.08833403912759401
-28.789986091794162 -3.315792585979293 0.08645234401279271
-28.28929068150208 -3.2555160997723376 0.08458713744347506
-27.788595271210028 -3.1949506517866637 0.08273852426029187
-27.287899860917946 -3.1340958700748174 0.08090660930388864
-26.787204450625865 -3.0729513826893693 0.07909149741492509
-26.28650904033381 -3.011516817682933 0.07729329343404849
-25.78581363004173 -2.9497918031080643 0.07551210220191144
-25.28511821974965 -2.8877759670173204 0.073748028559163
-24.784422809457595 -2.8254689374633286 0.07200117734645754
-24.283727399165514 -2.762870342498617 0.07027165340444412
-23.783031988873432 -2.6999798101757846 0.06855956157377889
-23.28233657858135 -2.6367969685474164 0.06686500669510646
-22.781641168289298 -2.5733214456660796 0.065188093609083
-22.280945757997216 -2.5095528695843483 0.06352892715635843
-21.780250347705135 -2.445490868354804 0.06188761217758447
-21.27955493741308 -2.381135070030035 0.06026425351341373
-20.778859527121 -2.316485102662598 0.058658956004495263
-20.27816411682892 -2.251540594305085 0.057071824491483444
-19.777468706536865 -2.1863011730100665 0.05550296381502555
-19.276773296244784 -2.1207664668301276 0.05395247881577862
-18.776077885952702 -2.054936103817839 0.052420474334388165
-18.27538247566065 -1.9888097120257746 0.05090705521151033
-17.774687065368568 -1.9223869195065162 0.04941232628779506
-17.273991655076486 -1.855667354312645 0.04793639240389229
-16.773296244784433 -1.7886506444967352 0.04647935840045729
-16.27260083449235 -1.7213364181113646 0.04504132911813645
-15.77190542420027 -1.6537243032091182 0.043622409397585035
-15.271210013908217 -1.5858139278425596 0.042222704079453874
-14.770514603616135 -1.517604920064263 0.04084231800439202
-14.269819193324054 -1.4490969079268239 0.039481356013053845
-13.769123783032 -1.380289519482813 0.0381399229460893
-13.268428372739919 -1.3111823827847942 0.03681812364415098
-12.767732962447838 -1.2417751258853627 0.035516062947888824
-12.267037552155784 -1.1720673768370893 0.03423384569795544
-11.766342141863703 -1.1020587636925447 0.03297157673500166
-11.265646731571621 -1.031748914504321 0.0317293608996783
-10.764951321279568 -0.9611374573249889 0.030507303032641528
-10.264255910987487 -0.8902240202071119 0.029305507974533282
-9.763560500695405 -0.8190082312032856 0.02812408056601505
-9.262865090403352 -0.7474897183660913 0.026963125647731442
-8.76216968011127 -0.6756681097480892 0.025822748060337727
