Polar data for 1 at Re = 60000.0
Alpha (deg) Cl Cd
-180.0 -14.41507762706135 2.159735175169653
-179.49930458970792 -14.405249869870694 2.154693219690056
-178.99860917941587 -14.395169842359458 2.1496151909246666
-178.49791376912378 -14.384838193887216 2.1445013485304263
-177.9972183588317 -14.374255573813517 2.1393519521642745
-177.49652294853965 -14.363422631497912 2.134167261483151
-176.99582753824757 -14.352340016299951 2.1289475361439956
-176.4951321279555 -14.341008377579193 2.1236930358037482
-175.99443671766343 -14.3294283646952 2.1184040201193484
-175.49374130737135 -14.317600627007526 2.113080748747737
-174.99304589707927 -14.305525813875725 2.107723481345856
-174.49235048678722 -14.293204574659349 2.10233247757064
-173.99165507649514 -14.280637558717952 2.096907997079032
-173.49095966620305 -14.2678254154111 2.0914502995279736
-172.990264255911 -14.254768794098332 2.0859596445744004
-172.48956884561892 -14.241468344139221 2.0804362918752575
-171.98887343532684 -14.227924714893305 2.0748805010874825
-171.48817802503476 -14.214138555720158 2.069292531868012
-170.9874826147427 -14.200110515979329 2.0636726438737942
-170.48678720445062 -14.185841245030353 2.05802109676176
-169.98609179415854 -14.171331392232815 2.0523381501888545
-169.4853963838665 -14.15658160694625 2.046624063812017
-168.9847009735744 -14.141592538530226 2.0408790972881854
-168.48400556328232 -14.126364836344294 2.0351035102743045
-167.98331015299027 -14.110899149748015 2.0292975624273093
-167.4826147426982 -14.095196128100927 2.023461513404142
-166.9819193324061 -14.0792564207626 2.0175956228617413
-166.48122392211405 -14.063080677092582 2.0117001504570484
-165.98052851182197 -14.046669546450438 2.0057753558470037
-165.4798331015299 -14.030023678195722 1.9998214986885459
-164.97913769123784 -14.013143721687971 1.9938388386386134
-164.47844228094576 -13.99603032628676 1.9878276353541513
-163.97774687065368 -13.978684141351636 1.9817881484920936
-163.47705146036162 -13.961105816242164 1.9757206377093852
-162.97635605006954 -13.943296000317883 1.969625362662962
-162.47566063977746 -13.925255342938371 1.963502583009769
-161.9749652294854 -13.906984493463153 1.9573525584067393
-161.47426981919332 -13.888484101251809 1.9511755485108169
-160.97357440890124 -13.869754815663892 1.944971812978944
-160.4728789986092 -13.850797286058942 1.9387416114680556
-159.9721835883171 -13.831612161796532 1.9324852036350948
-159.47148817802503 -13.8122000922362 1.9262028491370002
-158.97079276773297 -13.792561726737521 1.9198948076307158
-158.4700973574409 -13.772697714660037 1.913561338773175
-157.9694019471488 -13.752608705363311 1.9072027022213205
-157.46870653685676 -13.732295348206872 1.900819157632093
-156.96801112656468 -13.711758292550325 1.8944109646624328
-156.4673157162726 -13.690998187753184 1.8879783829692767
-155.96662030598054 -13.670015683175027 1.8815216722095722
-155.46592489568846 -13.648811428175389 1.8750410920402518
-154.96522948539638 -13.627386072113833 1.868536902118255
-154.46453407510432 -13.60574026434993 1.8620093621005283
-153.96383866481224 -13.583874654243221 1.8554587316440059
-153.46314325452016 -13.561789891153264 1.8488852704056318
-152.9624478442281 -13.539486624439608 1.8422892380423428
-152.46175243393603 -13.516965503461815 1.8356708942110793
-151.96105702364395 -13.494227177579443 1.8290304985687809
-151.4603616133519 -13.471272296152048 1.8223683107723923
-150.9596662030598 -13.448101508539178 1.8156845904788494
-150.45897079276773 -13.424715464100391 1.8089795973450884
-149.95827538247568 -13.401114812195242 1.8022535910280575
-149.4575799721836 -13.377300202183282 1.795506831184691
-148.9568845618915 -13.35327228342408 1.78873957747193
-148.45618915159943 -13.329031705277185 1.7819520895467176
-147.95549374130738 -13.304579117102147 1.775144627065988
-147.4547983310153 -13.279915168258523 1.7683174496866845
-146.95410292072324 -13.255040508105868 1.7614708170657498
-146.45340751043116 -13.229955786003746 1.7546049888601183
-145.95271210013908 -13.2046616513117 1.7477202247267312
-145.452016689847 -13.179158753389284 1.7408167843225315
-144.95132127955495 -13.153447741596079 1.7338949273044588
-144.45062586926286 -13.12752926529161 1.726954913329449
-143.94993045897078 -13.101403973835442 1.719997002054447
-143.44923504867873 -13.075072516587138 1.7130214531363888
-142.94853963838665 -13.048535542906247 1.7060285262322172
-142.44784422809457 -13.021793702152333 1.6990184809988738
-141.9471488178025 -12.994847643684931 1.6919915770932907
-141.44645340751043 -12.967698016863611 1.684948074172413
-140.94575799721835 -12.94034547104793 1.6778882318931836
-140.44506258692627 -12.912790655597437 1.6708123099125403
-139.94436717663422 -12.885034219871688 1.663720567887419
-139.44367176634213 -12.857076813230247 1.6566132654747645
-138.94297635605005 -12.828919085032656 1.6494906623315164
-138.442280945758 -12.800561684638485 1.6423530181146107
-137.94158553546592 -12.77200526140727 1.6352005924809938
-137.44089012517384 -12.743250464698587 1.6280336450875983
-136.94019471488178 -12.71429794387198 1.6208524355913707
-136.4394993045897 -12.685148348287004 1.613657223649247
-135.93880389429762 -12.655802327303217 1.606448268918165
-135.43810848400557 -12.626260530280167 1.5992258310550729
-134.9374130737135 -12.596523606577431 1.5919901697169032
-134.4367176634214 -12.566592205554532 1.5847415445605972
-133.93602225312935 -12.536466976571067 1.5774802152430998
-133.43532684283727 -12.506148568986543 1.5702064414213415
-132.9346314325452 -12.475637632160552 1.5629204827522725
-132.43393602225314 -12.444934815452637 1.5556225988928252
-131.93324061196105 -12.414040768222346 1.5483130494999426
-131.43254520166897 -12.382956139829243 1.5409920942305662
-130.93184979137692 -12.351681579632892 1.5336599927416352
-130.43115438108484 -12.320217736992827 1.5263170046900858
-129.93045897079276 -12.288565261268626 1.5189633897328663
-129.4297635605007 -12.256724801819832 1.5115994075269072
-128.92906815020862 -12.224697008006 1.5042253177291518
-128.42837273991654 -12.192482529186673 1.496841379996543
-127.92767732962449 -12.160082014721436 1.4894478539860168
-127.4269819193324 -12.12749611396983 1.4820449993545162
-126.92628650904032 -12.09472547629139 1.4746330757589754
-126.42559109874827 -12.06177075104571 1.4672123428563446
-125.92489568845619 -12.028632587592316 1.4597830603035562
-125.42420027816411 -11.99531163529078 1.4523454877575515
-124.92350486787205 -11.961808543500641 1.444899884875268
-124.42280945757997 -11.92812396158146 1.437446511313651
-123.92211404728789 -11.89425853889281 1.4299856267296414
-123.42141863699584 -11.860212924794222 1.4225174907801699
-122.92072322670376 -11.825987768645266 1.4150423631221867
-122.42002781641168 -11.791583719805491 1.4075605034126242
-121.91933240611961 -11.75700142763446 1.4000721713084272
-121.41863699582754 -11.722241541491723 1.3925776264665353
-120.91794158553546 -11.687304710736807 1.3850771285438843
-120.41724617524339 -11.652191584729326 1.3775709371974174
-119.91655076495132 -11.616902812828794 1.370059312084074
-119.41585535465924 -11.58143904439478 1.3625425128607955
-118.91515994436718 -11.545800928786836 1.3550207991845213
-118.41446453407511 -11.509989115364515 1.3474944307121874
-117.91376912378303 -11.474004253487376 1.3399636671007387
-117.41307371349096 -11.43784699251498 1.3324287680071163
-116.91237830319889 -11.401517981806872 1.3248899930882527
-116.41168289290681 -11.365017870722607 1.3173476020010946
-115.91098748261474 -11.328347308621748 1.3098018544025813
-115.41029207232268 -11.291506944863851 1.302253009949649
-114.9095966620306 -11.25449742880846 1.2947013282992406
-114.40890125173853 -11.217319409815136 1.2871470691082956
-113.90820584144646 -11.179973537243438 1.2795904920337535
-113.40751043115438 -11.142460460452913 1.272031856732554
-112.90681502086231 -11.104780828803133 1.264471422861638
-112.40611961057024 -11.066935291653639 1.2569094500779454
-111.90542420027816 -11.028924498363995 1.2493461980384173
-111.4047287899861 -10.990749098293737 1.2417819263999896
-110.90403337969401 -10.952409740802448 1.2342168948196073
-110.40333796940195 -10.913907075249671 1.2266513629542044
-109.90264255910988 -10.875241750994949 1.2190855904607258
-109.4019471488178 -10.836414417397858 1.2115198369961129
-108.90125173852573 -10.797425723817941 1.2039543622172997
-108.40055632823366 -10.758276319614762 1.196389425781231
-107.89986091794158 -10.718966854147862 1.1888252873448413
-107.39916550764951 -10.679497976776812 1.1812622065650804
-106.89847009735745 -10.639870336861147 1.1737004430988773
-106.39777468706536 -10.600084583760445 1.1661402566031787
-105.8970792767733 -10.560141366834255 1.158581906734924
-105.39638386648123 -10.520041335442134 1.1510256531510472
-104.89568845618915 -10.479785138943623 1.143471755508497
-104.39499304589708 -10.439373426698292 1.1359204734642057
-103.89429763560501 -10.398806848065693 1.1283720666751216
-103.39360222531293 -10.35808605240538 1.120826794798179
-102.89290681502086 -10.31721168907691 1.1132849174903137
-102.3922114047288 -10.276184407439832 1.105746694408476
-101.89151599443672 -10.235004856853688 1.0982123852095964
-101.39082058414465 -10.193673686678078 1.0906822495506234
-100.89012517385257 -10.15219154627253 1.0831565470884876
-100.3894297635605 -10.110559084996584 1.0756355374801339
-99.88873435326843 -10.068776952209827 1.068119480382507
-99.38803894297635 -10.026845797271793 1.0606086354525393
-98.88734353268428 -9.984766269542039 1.0531032623471739
-98.38664812239222 -9.94253901838012 1.0456036207233486
-97.88595271210013 -9.900164693145602 1.0381099702380099
-97.38525730180807 -9.857643943198045 1.0306225705480903
-96.884561891516 -9.81497741789698 1.0231416813105327
-96.38386648122392 -9.77216576660199 1.015667562182275
-95.88317107093185 -9.729209638672597 1.0082004728202656
-95.38247566063978 -9.686109683468377 1.0007406728814332
-94.8817802503477 -9.642866550348895 0.9932884220227174
-94.38108484005564 -9.599480888673686 0.9858439799010701
-93.88038942976357 -9.55595334780234 0.9784076061734237
-93.37969401947149 -9.512284577094345 0.9709795604967142
-92.87899860917942 -9.468475225909327 0.9635601025278917
-92.37830319888734 -9.424525943606799 0.9561494919238869
-91.87760778859527 -9.380437379546326 0.9487479883416463
-91.3769123783032 -9.336210183087498 0.941355851438106
-90.87621696801112 -9.291845003589795 0.9339733408702053
-90.37552155771905 -9.247342490412844 0.9266007162948893
-89.87482614742699 -9.20270329291618 0.9192382373690937
-89.3741307371349 -9.157928060459337 0.9118861637497564
-88.87343532684284 -9.113017442401873 0.9045447550938222
-88.37273991655077 -9.067972088103385 0.8972142710582305
-87.87204450625869 -9.022792646923374 0.8898949712999191
-87.37134909596662 -8.977479768221432 0.8825871154758276
-86.87065368567455 -8.9320341013571 0.8752909632428989
-86.36995827538247 -8.886456295689928 0.8680067742580673
-85.8692628650904 -8.840747000579487 0.8607348081782811
-85.36856745479834 -8.79490686538534 0.8534753246604763
-84.86787204450626 -8.748936539467014 0.8462285833615888
-84.36717663421419 -8.702836672184059 0.8389948439385599
-83.86648122392211 -8.656607912896067 0.8317743660483417
-83.36578581363004 -8.610250910962574 0.8245674093478557
-82.86509040333797 -8.563766315743127 0.8173742334940521
-82.36439499304589 -8.51715477659732 0.8101950981438706
-81.86369958275382 -8.470416942884636 0.8030302629542505
-81.36300417246176 -8.42355346396469 0.7958799875821279
-80.86230876216968 -8.376564989197018 0.7887445316844439
-80.36161335187761 -8.329452167941195 0.7816241549181489
-79.86091794158554 -8.28221564955675 0.7745191169401644
-79.36022253129346 -8.234856083403226 0.767429677407446
-78.85952712100139 -8.187374118840221 0.760356095976928
-78.35883171070932 -8.139770405227264 0.7532986323055462
-77.85813630041724 -8.09204559192391 0.746257546050249
-77.35744089012518 -8.044200328289751 0.7392330968679759
-76.85674547983311 -7.996235263684274 0.7322255444156558
-76.35605006954103 -7.948151047467069 0.7252351483502388
-75.85535465924896 -7.899948328997721 0.7182621683286592
-75.35465924895689 -7.851627757635737 0.7113068640078617
-74.85396383866481 -7.803189982740716 0.7043694950447841
-74.35326842837274 -7.754635653672179 0.6974503210963712
-73.85257301808066 -7.705965419789675 0.6905496018195483
-73.3518776077886 -7.657179930452817 0.683667596871278
-72.85118219749653 -7.608279835021091 0.6768045659084749
-72.35048678720445 -7.559265782854081 0.6699607685880982
-71.84979137691238 -7.510138423311344 0.6631364645670801
-71.34909596662031 -7.460898405752443 0.656331913502362
-70.84840055632823 -7.411546379536941 0.6495473750508851
-70.34770514603616 -7.362082994024367 0.6427831088695908
-69.8470097357441 -7.312508898574262 0.636039374615406
-69.34631432545201 -7.2628247425462265 0.6293164319452882
-68.84561891515995 -7.213031175299801 0.6226145405161678
-68.34492350486788 -7.163128846194536 0.6159339599849916
-67.8442280945758 -7.113118404589973 0.60927495000869
-67.34353268428373 -7.063000499845704 0.6026377702442098
-66.84283727399166 -7.0127757813212215 0.5960226803484869
-66.34214186369958 -6.9624448983761456 0.5894299399784626
-65.84144645340751 -6.9120085003700185 0.5828598087910835
-65.34075104311543 -6.861467236662361 0.5763125464432766
-64.84005563282336 -6.810821756612758 0.5697884125919903
-64.3393602225313 -6.760072709580759 0.563287666894166
-63.838664812239216 -6.709220744925912 0.5568105690067413
-63.33796940194715 -6.658266512007796 0.550357378586654
-62.83727399165508 -6.607210660185932 0.5439283552908436
-62.336578581363 -6.556053838819904 0.5375237587762549
-61.83588317107093 -6.504796697269218 0.5311438486998239
-61.335187760778865 -6.45343988489351 0.5247888847184972
-60.834492350486784 -6.4019840510522785 0.5184591264892036
-60.333796940194716 -6.3504298451050945 0.512154833668895
-59.83310152990265 -6.298777916411507 0.5058762659144986
-59.33240611961057 -6.247028914331094 0.4996236828829645
-58.8317107093185 -6.195183488223347 0.4933973442312251
-58.33101529902643 -6.143242287447902 0.48719750961622527
-57.83031988873435 -6.091205961364278 0.481024438694908
-57.329624478442284 -6.039075159332026 0.4748783911242093
-56.82892906815022 -5.986850530710709 0.4687596265610651
-56.328233657858135 -5.934532724859875 0.4626684046624238
-55.82753824756607 -5.882122391139089 0.45660498508522135
-55.326842837273986 -5.829620178907928 0.4505696274863937
-54.82614742698192 -5.777026737525884 0.4445625915228892
-54.32545201668985 -5.72434271635255 0.43858413685163494
-53.82475660639777 -5.671568764747488 0.4326345231295882
-53.3240611961057 -5.618705532070263 0.4267140100136743
-52.823365785813635 -5.5657536676803945 0.42082285716083984
-52.322670375521554 -5.512713820937461 0.41496132422802606
-51.82197496522949 -5.459586641201025 0.4091296708721672
-51.321279554937405 -5.406372777830609 0.4033281567502098
-50.82058414464535 -5.353072880185803 0.3975570415190845
-50.31988873435327 -5.299687597626158 0.3918165848357433
-49.81919332406119 -5.246217579511208 0.3861070463571185
-49.318497913769136 -5.19266347520053 0.38042868574015326
-48.817802503477054 -5.13902593405366 0.3747817626417835
-48.31710709318497 -5.085305605430162 0.36916653671895044
-47.81641168289292 -5.031503138689598 0.3635832676285972
-47.31571627260084 -4.977619183191533 0.3580322150276633
-46.81502086230876 -4.923654388295486 0.3525136385730829
-46.3143254520167 -4.869609403361037 0.3470277979218061
-45.81363004172462 -4.815484877747761 0.3415749527307636
-45.31293463143254 -4.761281460815167 0.336155362656902
-44.81223922114049 -4.706999801922831 0.3307692873571519
-44.311543810848406 -4.652640550430346 0.325416986488467
-43.810848400556324 -4.598204355697175 0.32009871970777265
-43.31015299026427 -4.543691867082981 0.31481474667202075
-42.80945757997219 -4.4891037339472435 0.30956532703814016
-42.30876216968011 -4.434440605649553 0.3043507204630846
-41.808066759388026 -4.379703131549445 0.2991711866037829
-41.30737134909597 -4.3248919610064975 0.29402698511717457
-40.80667593880389 -4.2700077433802734 0.28891837566021156
-40.30598052851181 -4.215051128030265 0.28384561788982093
-39.80528511821976 -4.160022764316094 0.2788089714629511
-39.304589707927676 -4.1049233015973075 0.2738086960365362
-38.803894297635594 -4.049753389233413 0.26884505126751573
-38.30319888734354 -3.994513676584032 0.2639182968128399
-37.80250347705146 -3.9392048130086836 0.259028692329434
-37.30180806675938 -3.8838274478668895 0.25417649747424814
-36.801112656467325 -3.828382230518284 0.2493619719042201
-36.30041724617524 -3.7728698103223737 0.24458537527628937
-35.79972183588316 -3.7172908366386794 0.23984696724738835
-35.29902642559111 -3.66164595882685 0.2351470074744743
-34.79833101529903 -3.6059358262463634 0.230485755614469
-34.297635605006946 -3.5501610882567975 0.2258634713243261
-33.79694019471489 -3.49432239421773 0.22128041426097805
-33.29624478442281 -3.4384203934886672 0.21673684408136612
-32.79554937413073 -3.3824557354292297 0.21223302044243159
-32.294853963838676 -3.32642906939891 0.20776920300111396
-31.794158553546595 -3.2703410447572994 0.20334565141435273
-31.293463143254513 -3.2141923108639334 0.1989626253390892
-30.79276773296246 -3.1579835170783896 0.19462038443225932
-30.29207232267038 -3.1017153127602173 0.19031918835081146
-29.791376912378297 -3.045388347268937 0.18605929675167449
-29.290681502086244 -2.9890032699641838 0.18184096929179677
-28.789986091794162 -2.932560730205407 0.17766446562811072
-28.28929068150208 -2.876061377352241 0.17353004541756828
-27.788595271210028 -2.8195058607642496 0.16943796831710006
-27.287899860917946 -2.7628948298008966 0.16538849398364558
-26.787204450625865 -2.706228933821831 0.16138188207414433
-26.28650904033381 -2.6495088221866014 0.15741839224554827
-25.78581363004173 -2.5927351442546867 0.1534982841547809
-25.28511821974965 -2.5359085493857068 0.14962181745879594
-24.784422809457595 -2.4790296869392394 0.14578925181452224
-24.283727399165514 -2.4220992062747486 0.1420008468789064
-23.783031988873432 -2.365117756751869 0.1382568623088844
-23.28233657858135 -2.3080859877300925 0.13455755776140282
-22.781641168289298 -2.2510045485690684 0.13090319289339053
-22.280945757997216 -2.1938740886282604 0.12729402736180123
-21.780250347705135 -2.136695257267289 0.12373032082356022
-21.27955493741308 -2.0794687038456603 0.12021233293562478
-20.778859527121 -2.022195077722924 0.11674032335491308
-20.27816411682892 -1.9648750282587004 0.11331455173838595
-19.777468706536865 -1.907509204812496 0.10993527774296868
-19.276773296244784 -1.85009825674386 0.10660276102561145
-18.776077885952702 -1.79264283341237 0.10331726124324664
-18.27538247566065 -1.7351435841775897 0.10007903805282087
-17.774687065368568 -1.677601158399054 0.09688835111127364
-17.273991655076486 -1.6200162054362979 0.0937454600755338
-16.773296244784433 -1.5623893746489417 0.09065062460255507
-16.27260083449235 -1.5047213153964494 0.0876041043492663
-15.77190542420027 -1.447012677038484 0.08460615897262119
-15.271210013908217 -1.3892641089345235 0.08165704812954505
-14.770514603616135 -1.3314762604441173 0.07875703147698448
-14.269819193324054 -1.2736497809268998 0.075906368671879
-13.769123783032 -1.2157853197423494 0.07310531937117165
-13.268428372739919 -1.1578835262500293 0.0703541432317984
-12.767732962447838 -1.0999450498095316 0.06765309991070584
-12.267037552155784 -1.041970539780377 0.06500244906481573
-11.766342141863703 -0.983960645522143 0.06240245035108888
-11.265646731571621 -0.9259160163943934 0.059853363426457695
-10.764951321279568 -0.867837301756663 0.05735544794785813
-10.264255910987487 -0.8097251509684869 0.05490896357223324
-9.763560500695405 -0.7515802133894853 0.05251416995652608
-9.262865090403352 -0.6934031383791366 0.050171326757669055
-8.76216968011127 -0.6351945752970609 0.047880693632612326
-8.261474269819189 -0.5769551735027791 0.04564253023828829
