Polar data for 2 at Re = 254285.7142857143
Alpha (deg) Cl Cd
-180.0 -13.184759726439989 0.019280896818896373
-179.49930458970792 -13.183557858974666 0.019603490434019696
-178.99860917941587 -13.182124813445881 0.019926309930834593
-178.49791376912378 -13.180460785164797 0.020249336787749914
-177.9972183588317 -13.178565969442626 0.020572552483174286
-177.49652294853965 -13.176440561590546 0.02089593849551634
-176.99582753824757 -13.174084756919754 0.02121947630318509
-176.4951321279555 -13.171498750741438 0.021543147384588998
-175.99443671766343 -13.168682738366783 0.02186693321813675
-175.49374130737135 -13.165636915106983 0.022190815282237306
-174.99304589707927 -13.16236147627323 0.022514775055299127
-174.49235048678722 -13.15885661717671 0.02283879401573101
-173.99165507649514 -13.155122533128615 0.02316285364194169
-173.49095966620305 -13.151159419440123 0.023486935412339968
-172.990264255911 -13.146967471422453 0.023811020805334523
-172.48956884561892 -13.142546884386764 0.02413509129933393
-171.98887343532684 -13.137897853644272 0.024459128372746927
-171.48817802503476 -13.133020574506148 0.02478311350398231
-170.9874826147427 -13.127915242283585 0.02510702817144876
-170.48678720445062 -13.122582052287779 0.025430853853555188
-169.98609179415854 -13.11702119982992 0.02575457202870994
-169.4853963838665 -13.111232880221191 0.026078164175322036
-168.9847009735744 -13.105217288772792 0.026401611771800157
-168.48400556328232 -13.098974620795904 0.026724896296552655
-167.98331015299027 -13.092505071601721 0.027047999227988714
-167.4826147426982 -13.085808836501425 0.027370902044516796
-166.9819193324061 -13.07888611080622 0.027693586224545805
-166.48122392211405 -13.071737089827291 0.028016033246484204
-165.98052851182197 -13.064361968875826 0.028338224588740787
-165.4798331015299 -13.056760943263015 0.02866014172972446
-164.97913769123784 -13.048934208300043 0.0289817661478438
-164.47844228094576 -13.040881959298115 0.029303079321507372
-163.97774687065368 -13.032604391568402 0.029624062729124143
-163.47705146036162 -13.024101700422104 0.02994469784910274
-162.97635605006954 -13.015374081170414 0.030264966159851844
-162.47566063977746 -13.006421729124522 0.030584849139780088
-161.9749652294854 -12.997244839595606 0.03090432826729632
-161.47426981919332 -12.987843607894856 0.031223385020809444
-160.97357440890124 -12.978218229333486 0.03154200087872776
-160.4728789986092 -12.968368899222664 0.03186015731946017
-159.9721835883171 -12.958295812873583 0.032177835821415354
-159.47148817802503 -12.947999165597444 0.032495017863002115
-158.97079276773297 -12.937479152705428 0.03281168492262902
-158.4700973574409 -12.92673596950872 0.03312781847870498
-157.9694019471488 -12.915769811318519 0.03344340000963868
-157.46870653685676 -12.904580873446012 0.03375841099383879
-156.96801112656468 -12.893169351202388 0.03407283290971379
-156.4673157162726 -12.881535439898833 0.03438664723567279
-155.96662030598054 -12.869679334846555 0.034699835450124214
-155.46592489568846 -12.857601231356718 0.035012379031476845
-154.96522948539638 -12.845301324740529 0.03532425945813959
-154.46453407510432 -12.832779810309177 0.03563545820852092
-153.96383866481224 -12.820036883373849 0.035945956761029615
-153.46314325452016 -12.807072739245733 0.03625573659407448
-152.9624478442281 -12.79388757323602 0.03656477918606414
-152.46175243393603 -12.780481580655898 0.03687306601540734
-151.96105702364395 -12.766854956816562 0.03718057856051275
-151.4603616133519 -12.753007897029203 0.03748729829978918
-150.9596662030598 -12.738940596605008 0.0377932067116452
-150.45897079276773 -12.724653250855159 0.03809828527448965
-149.95827538247568 -12.710146055090867 0.03840251546673122
-149.4575799721836 -12.695419204623292 0.03870587876677871
-148.9568845618915 -12.68047289476365 0.039008356653040685
-148.45618915159943 -12.665307320823125 0.03930993060392578
-147.95549374130738 -12.649922678112898 0.03961058209784295
-147.4547983310153 -12.63431916194417 0.03991029261320077
-146.95410292072324 -12.618496967628118 0.04020904362840809
-146.45340751043116 -12.602456290475946 0.04050681662187332
-145.95271210013908 -12.586197325798835 0.04080359307200569
-145.452016689847 -12.569720268907979 0.041099354457213286
-144.95132127955495 -12.553025315114564 0.04139408225590534
-144.45062586926286 -12.536112659729778 0.04168775794649031
-143.94993045897078 -12.518982498064819 0.041980363007377106
-143.44923504867873 -12.501635025430875 0.042271878916974134
-142.94853963838665 -12.484070437139142 0.042562287153690134
-142.44784422809457 -12.466288928500795 0.04285156919593418
-141.9471488178025 -12.448290694827033 0.043139706522114726
-141.44645340751043 -12.430075931429041 0.04342668061064052
-140.94575799721835 -12.411644833618013 0.04371247293992035
-140.44506258692627 -12.392997596705143 0.0439970649883628
-139.94436717663422 -12.374134416001613 0.044280438234376704
-139.44367176634213 -12.355055486818621 0.04456257415637059
-138.94297635605005 -12.33576100446734 0.04484345423275342
-138.442280945758 -12.31625116425898 0.04512305994193393
-137.94158553546592 -12.29652616150473 0.045401372762320466
-137.44089012517384 -12.276586191515765 0.04567837417232211
-136.94019471488178 -12.256431449603287 0.04595404565034732
-136.4394993045897 -12.23606213107848 0.04622836867480516
-135.93880389429762 -12.215478431252539 0.046501324724103996
-135.43810848400557 -12.19468054543665 0.04677289527665261
-134.9374130737135 -12.173668668942007 0.04704306181085992
-134.4367176634214 -12.152442997079788 0.047311805805134485
-133.93602225312935 -12.131003725161204 0.04757910873788494
-133.43532684283727 -12.109351048497427 0.047844952087520085
-132.9346314325452 -12.087485162399648 0.04810931733244876
-132.43393602225314 -12.065406262179067 0.04837218595107949
-131.93324061196105 -12.04311454314687 0.04863353942182107
-131.43254520166897 -12.020610200614247 0.04889335922308234
-130.93184979137692 -11.997893429892386 0.04915162683327161
-130.43115438108484 -11.974964426292477 0.04940832373079805
-129.93045897079276 -11.951823385125714 0.049663431394070076
-129.4297635605007 -11.928470501703288 0.049916931301496645
-128.92906815020862 -11.904905971336373 0.05016880493148633
-128.42837273991654 -11.881129989336184 0.050419033762447815
-127.92767732962449 -11.857142751013889 0.05066759927278984
-127.4269819193324 -11.832944451680692 0.0509144829409212
-126.92628650904032 -11.808535286647768 0.05115966624525063
-126.42559109874827 -11.783915451226328 0.051403130664186544
-125.92489568845619 -11.759085140727542 0.051644857676137954
-125.42420027816411 -11.734044550462617 0.0518848287595136
-124.92350486787205 -11.708793875742725 0.05212302539272205
-124.42280945757997 -11.683333311879075 0.052359429054172166
-123.92211404728789 -11.657663054182855 0.05259402122227229
-123.42141863699584 -11.631783297965232 0.05282678337543166
-122.92072322670376 -11.605694238537424 0.05305769699205869
-122.42002781641168 -11.5793960712106 0.05328674355056211
-121.91933240611961 -11.552888991295966 0.05351390452935066
-121.41863699582754 -11.5261731941047 0.05373916140683303
-120.91794158553546 -11.499248874947988 0.05396249566141802
-120.41724617524339 -11.47211622913704 0.05418388877151435
-119.91655076495132 -11.444775451983034 0.05440332221553067
-119.41585535465924 -11.417226738797162 0.054620777471875645
-118.91515994436718 -11.38947028489061 0.054836236018958026
-118.41446453407511 -11.361506285574574 0.05504967933518666
-117.91376912378303 -11.333334936160238 0.05526108889897001
-117.41307371349096 -11.304956431958793 0.055470446188717035
-116.91237830319889 -11.27637096828143 0.05567773268283631
-116.41168289290681 -11.247578740439348 0.05588292985973657
-115.91098748261474 -11.218579943743716 0.05608601919782662
-115.41029207232268 -11.189374773505751 0.05628698217551496
-114.9095966620306 -11.159963425036612 0.05648580027121057
-114.40890125173853 -11.130346093647521 0.056682454963322124
-113.90820584144646 -11.100522974649646 0.056876927730258084
-113.40751043115438 -11.070494263354174 0.05706920005042747
-112.90681502086231 -11.040260155072314 0.057259253402238794
-112.40611961057024 -11.009820845115247 0.0574470692641008
-111.90542420027816 -10.979176528794167 0.05763262911442228
-111.4047287899861 -10.948327401420261 0.05781591443161187
-110.90403337969401 -10.917273658304712 0.05799690669407841
-110.40333796940195 -10.886015494758706 0.05817558738023047
-109.90264255910988 -10.854553106093451 0.05835193796847686
-109.4019471488178 -10.82288668762013 0.058525939937226254
-108.90125173852573 -10.79101643464993 0.05869757476488745
-108.40055632823366 -10.758942542494037 0.05886682392986885
-107.89986091794158 -10.726665206463647 0.05903366891057975
-107.39916550764951 -10.694184621869962 0.05919809118542828
-106.89847009735745 -10.661500984024148 0.0593600722328234
-106.39777468706536 -10.628614488237414 0.05951959353117402
-105.8970792767733 -10.59552532982094 0.05967663655888843
-105.39638386648123 -10.562233704085909 0.0598311827943757
-104.89568845618915 -10.528739806343527 0.059983213716044356
-104.39499304589708 -10.495043831904976 0.06013271080230319
-103.89429763560501 -10.461145976081458 0.060279655531560825
-103.39360222531293 -10.427046434184138 0.06042402938222606
-102.89290681502086 -10.39274540152422 0.0605658138327078
-102.3922114047288 -10.358243073412897 0.06070499036141429
-101.89151599443672 -10.323539645161365 0.06084154044675476
-101.39082058414465 -10.288635312080796 0.06097544556713745
-100.89012517385257 -10.253530269482393 0.06110668720097144
-100.3894297635605 -10.218224712677344 0.0612352468266653
-99.88873435326843 -10.182718836976836 0.061361105922627765
-99.38803894297635 -10.14701283769205 0.06148424596726752
-98.88734353268428 -10.111106910134193 0.06160464843899331
-98.38664812239222 -10.075001249614456 0.06172229481621376
-97.88595271210013 -10.038696051444003 0.061837166577337774
-97.38525730180807 -10.002191510934058 0.06194924520077387
-96.884561891516 -9.965487823395794 0.062058512164930676
-96.38386648122392 -9.928585184140399 0.06216494894821749
-95.88317107093185 -9.891483788479068 0.06226853702904227
-95.38247566063978 -9.854183831722981 0.0623692578858142
-94.8817802503477 -9.81668550918334 0.06246709299694202
-94.38108484005564 -9.778989016171334 0.06256202384083402
-93.88038942976357 -9.741094547998156 0.0626540318958994
-93.37969401947149 -9.703002299974973 0.06274309864054677
-92.87899860917942 -9.664712467413 0.06282920555318454
-92.37830319888734 -9.626225245623427 0.06291233411222168
-91.87760778859527 -9.587540829917419 0.06299246579606681
-91.3769123783032 -9.548659415606192 0.06306958208312856
-90.87621696801112 -9.509581198000927 0.06314366445181611
-90.37552155771905 -9.470306372412818 0.06321469438053755
-89.87482614742699 -9.430835134153046 0.06328265334770182
-89.3741307371349 -9.391167678532799 0.063347522831718
-88.87343532684284 -9.351304200863293 0.0634092843109944
-88.37273991655077 -9.31124489645568 0.06346791926393984
-87.87204450625869 -9.270989960621183 0.06352340916896275
-87.37134909596662 -9.230539588670961 0.06357573550447264
-86.87065368567455 -9.189893975916238 0.06362487974887714
-86.36995827538247 -9.149053317668173 0.0636708233805862
-85.8692628650904 -9.108017809237968 0.06371354787800736
-85.36856745479834 -9.06678764593683 0.06375303471954967
-84.86787204450626 -9.025363023075922 0.06378926538362255
-84.36717663421419 -8.98374413596645 0.06382222134863406
-83.86648122392211 -8.941931179919603 0.06385188409299274
-83.36578581363004 -8.899924350246561 0.06387823509510786
-82.86509040333797 -8.857723842258519 0.06390125583338772
-82.36439499304589 -8.815329851266686 0.0639209277862413
-81.86369958275382 -8.77274257258222 0.0639372324320772
-81.36300417246176 -8.729962201516312 0.06395015124930419
-80.86230876216968 -8.686988933380189 0.06395966571633098
-80.36161335187761 -8.643822963485011 0.0639657573115661
-79.86091794158554 -8.600464487141966 0.06396840751341841
-79.36022253129346 -8.556913699662264 0.06396759780029664
-78.85952712100139 -8.51317079635707 0.06396330965060941
-78.35883171070932 -8.469235972537593 0.06395552454276592
-77.85813630041724 -8.425109423515028 0.06394422395517411
-77.35744089012518 -8.38079134460055 0.06392938936624308
-76.85674547983311 -8.336281931105344 0.06391100225438144
-76.35605006954103 -8.29158137834062 0.06388904409799805
-75.85535465924896 -8.246689881617545 0.06386349637550197
-75.35465924895689 -8.20160763624732 0.06383434056530106
-74.85396383866481 -8.156334837541156 0.06380155814580472
-74.35326842837274 -8.110871680810217 0.06376513059542126
-73.85257301808066 -8.065218361365684 0.06372503939255962
-73.3518776077886 -8.01937507451878 0.06368126601562811
-72.85118219749653 -7.973342015580666 0.06363379194303646
-72.35048678720445 -7.927119379862543 0.06358259865319242
-71.84979137691238 -7.880707362675604 0.06352766762450494
-71.34909596662031 -7.834106159331039 0.063468980335383
-70.84840055632823 -7.787315965140035 0.06340651826423475
-70.34770514603616 -7.740336975413793 0.06334026288946941
-69.8470097357441 -7.693169385463467 0.06327019568949581
-69.34631432545201 -7.645813390600278 0.06319629814272225
-68.84561891515995 -7.598269186135429 0.06311855172755769
-68.34492350486788 -7.550536967380079 0.06303693792241043
-67.8442280945758 -7.5026169296454235 0.06295143820568987
-67.34353268428373 -7.454509268242671 0.0628620340558043
-66.84283727399166 -7.406214178482994 0.06276870695116248
-66.34214186369958 -7.357731855677589 0.0626714383701729
-65.84144645340751 -7.309062495137649 0.06257020979124488
-65.34075104311543 -7.260206292174356 0.062465002692786584
-64.84005563282336 -7.211163442098897 0.06235579855320687
-64.3393602225313 -7.161934140222481 0.06224257885091482
-63.838664812239216 -7.112518581856275 0.06212532506431871
-63.33796940194715 -7.062916962311487 0.062004018671827074
-62.83727399165508 -7.013129476899305 0.06187864115184931
-62.336578581363 -6.963156320930903 0.0617491739827936
-61.83588317107093 -6.912997689717475 0.06161559864306869
-61.335187760778865 -6.8626537785702375 0.061477896611083535
-60.834492350486784 -6.81212478280035 0.061336049365246656
-60.333796940194716 -6.761410897719021 0.0611900383839669
-59.83310152990265 -6.710512318637424 0.06103984514565301
-59.33240611961057 -6.659429240866768 0.060885451128713505
-58.8317107093185 -6.608161859718219 0.06072683781155723
-58.33101529902643 -6.556710370502987 0.06056398667259326
-57.83031988873435 -6.505074968532259 0.06039687919022933
-57.329624478442284 -6.453255849117209 0.06022549684287497
-56.82892906815022 -6.401253207569059 0.06004982110893879
-56.328233657858135 -6.349067239198977 0.0598698334668291
-55.82753824756607 -6.296698139318135 0.05968551539495508
-55.326842837273986 -6.244146103237764 0.05949684837172546
-54.82614742698192 -6.191411326269037 0.05930381387554855
-54.32545201668985 -6.138494003723121 0.05910639338483341
-53.82475660639777 -6.085394330911239 0.05890456837798867
-53.3240611961057 -6.032112503144564 0.05869832033342286
-52.823365785813635 -5.978648715734291 0.05848763072954492
-52.322670375521554 -5.925003163991608 0.0582724810447635
-51.82197496522949 -5.87117604322771 0.058052852757487214
-51.321279554937405 -5.817167548753769 0.05782872734612503
-50.82058414464535 -5.762977875881003 0.05760008628908535
-50.31988873435327 -5.708607219920584 0.057366911064777135
-49.81919332406119 -5.6540557761837 0.057129183151608795
-49.318497913769136 -5.599323739981553 0.0568868840279894
-48.817802503477054 -5.544411306625324 0.05663999517232747
-48.31710709318497 -5.489318671426201 0.05638849806303185
-47.81641168289292 -5.434046029695377 0.056132374178511066
-47.31571627260084 -5.378593576744063 0.05587160499717396
-46.81502086230876 -5.322961507883409 0.055606171997429274
-46.3143254520167 -5.267150018424633 0.055336056657685526
-45.81363004172462 -5.211159303678915 0.055061240456351565
-45.31293463143254 -5.154989558957443 0.05478170487183624
-44.81223922114049 -5.098640979571432 0.0544974313825483
-44.311543810848406 -5.042113760832034 0.054208401466895914
-43.810848400556324 -4.985408098050446 0.05391459660328872
-43.31015299026427 -4.9285241865378815 0.05361599827013423
-42.80945757997219 -4.8714622216055155 0.05331258794584241
-42.30876216968011 -4.814222398564542 0.05300434710882111
-41.808066759388026 -4.75680491272615 0.0526912572374794
-41.30737134909597 -4.699209959401518 0.052373299810226134
-40.80667593880389 -4.641437733901856 0.05205045630546938
-40.30598052851181 -4.583488431538331 0.051722708201618436
-39.80528511821976 -4.52536224762218 0.05139003697708182
-39.304589707927676 -4.467059377464519 0.05105242411026849
-38.803894297635594 -4.408580016376593 0.05070985107958696
-38.30319888734354 -4.349924359669597 0.05036229936344587
-37.80250347705146 -4.291092602654675 0.05000975044025395
-37.30180806675938 -4.232084940643052 0.04965218578841994
-36.801112656467325 -4.172901568945914 0.049289586886352696
-36.30041724617524 -4.113542682874442 0.04892193521246073
-35.79972183588316 -4.054008477739817 0.048549212245153114
-35.29902642559111 -3.9942991488532686 0.048171399462838035
-34.79833101529903 -3.9344148915259356 0.047788478343924676
-34.297635605006946 -3.8743559010690407 0.04740043036682155
-33.79694019471489 -3.8141223727937787 0.04700723700993718
-33.29624478442281 -3.753714502011309 0.04660887975168075
-32.79554937413073 -3.6931324840328403 0.04620534007046022
-32.294853963838676 -3.632376514169582 0.045796599444685435
-31.794158553546595 -3.5714467877326785 0.04538263935276403
-31.293463143254513 -3.5103435000333536 0.044963441273105295
-30.79276773296246 -3.4490668463827876 0.04453898668411775
-30.29207232267038 -3.3876170220921895 0.04410925706421025
-29.791376912378297 -3.3259942224727115 0.04367423389179141
-29.290681502086244 -3.2641986428355696 0.04323389864526987
-28.789986091794162 -3.2022304784919373 0.0427882328030547
-28.28929068150208 -3.1400899247530236 0.04233721784355397
-27.788595271210028 -3.0777771769300233 0.04188083524517665
-27.287899860917946 -3.0152924303340884 0.04141906648633213
-26.787204450625865 -2.952635880276435 0.040951893045428386
-26.28650904033381 -2.8898077220682796 0.04047929640087404
-25.78581363004173 -2.8268081510207526 0.040001258031078055
-25.28511821974965 -2.7636373624450843 0.03951775941444939
-24.784422809457595 -2.7002955516524767 0.039028782029396455
-24.283727399165514 -2.6367829139540677 0.03853430735432843
-23.783031988873432 -2.5730996446610876 0.03803431686765317
-23.28233657858135 -2.509245939084724 0.0375287920477803
-22.781641168289298 -2.4452219925361507 0.03701771437311789
-22.280945757997216 -2.3810280003265833 0.036501065322074686
-21.780250347705135 -2.3166641577671743 0.03597882637306009
-21.27955493741308 -2.252130660169161 0.03545097900448184
-20.778859527121 -2.187427702843681 0.03491750469474934
-20.27816411682892 -2.1225554811019793 0.034378384922270896
-19.777468706536865 -2.0575141902551795 0.03383360116545579
-19.276773296244784 -1.992304025614526 0.03328313490271188
-18.776077885952702 -1.9269251824911993 0.03272696761244891
-18.27538247566065 -1.86137785619638 0.032165080773074714
-17.774687065368568 -1.7956622420412702 0.03159745586299827
-17.273991655076486 -1.7297785353370219 0.031024074360628748
-16.773296244784433 -1.6637269313948724 0.03044491774437423
-16.27260083449235 -1.5975076255259881 0.029859967492643566
-15.77190542420027 -1.531120813041571 0.029269205083845826
-15.271210013908217 -1.4645666892527944 0.028672611996389305
-14.770514603616135 -1.397845449470846 0.028070169708683188
-14.269819193324054 -1.3309572890069563 0.027461859699135546
-13.769123783032 -1.2639024031722772 0.026847663446155565
-13.268428372739919 -1.1966809872779822 0.026227562428152093
-12.767732962447838 -1.1292932366353088 0.025601538123533205
-12.267037552155784 -1.0617393465554232 0.024969572010708305
-11.766342141863703 -0.9940195123495061 0.0243316455680858
