Polar data for 2 at Re = 128571.42857142858
Alpha (deg) Cl Cd
-180.0 -7.647955161033619 1.114646345978546
-179.49930458970792 -7.668066714218157 1.1120196914839402
-178.99860917941587 -7.688042858055291 1.1093748922145064
-178.49791376912378 -7.707882717969448 1.1067120800523373
-177.9972183588317 -7.727585419385039 1.1040313868795277
-177.49652294853965 -7.74715008772649 1.1013329445781663
-176.99582753824757 -7.7665758484182215 1.0986168850303486
-176.4951321279555 -7.785861826884653 1.0958833401181647
-175.99443671766343 -7.805007148550204 1.0931324417237105
-175.49374130737135 -7.824010938839298 1.0903643217290757
-174.99304589707927 -7.842872323176356 1.0875791120163536
-174.49235048678722 -7.861590426985797 1.0847769444676356
-173.99165507649514 -7.880164375692041 1.0819579509650168
-173.49095966620305 -7.89859329471951 1.0791222633905864
-172.990264255911 -7.916876309492625 1.0762700136264385
-172.48956884561892 -7.9350125454358045 1.0734013335546664
-171.98887343532684 -7.953001127973471 1.0705163550573624
-171.48817802503476 -7.970841182530045 1.0676152100166167
-170.9874826147427 -7.988531834529948 1.0646980303145253
-170.48678720445062 -8.0060722093976 1.0617649478331772
-169.98609179415854 -8.023461432557419 1.0588160944546672
-169.4853963838665 -8.04069862943383 1.055851602061087
-168.9847009735744 -8.057782925451251 1.0528716025345284
-168.48400556328232 -8.074713446034107 1.0498762277570866
-167.98331015299027 -8.091489316606808 1.0468656096108522
-167.4826147426982 -8.108109662593789 1.043839879977915
-166.9819193324061 -8.12457360941946 1.0407991707403725
-166.48122392211405 -8.140880282508247 1.0377436137803129
-165.98052851182197 -8.157028807284568 1.0346733409798332
-165.4798331015299 -8.173018309172845 1.0315884842210223
-164.97913769123784 -8.188847913597499 1.0284891753859722
-164.47844228094576 -8.204516745982946 1.0253755463567782
-163.97774687065368 -8.220023931753618 1.02224772901553
-163.47705146036162 -8.235368596333926 1.0191058552443224
-162.97635605006954 -8.25054986514829 1.015950056925247
-162.47566063977746 -8.265566863621135 1.012780465940397
-161.9749652294854 -8.280418717176882 1.0095972141718639
-161.47426981919332 -8.295104551239952 1.006400433501738
-160.97357440890124 -8.30962349123476 1.0031902558121166
-160.4728789986092 -8.323974662585734 0.9999668129850898
-159.9721835883171 -8.33815719071729 0.9967302369027486
-159.47148817802503 -8.352170201053847 0.9934806594471886
-158.97079276773297 -8.36601281901983 0.9902182125005001
-158.4700973574409 -8.37968417003966 0.9869430279447762
-157.9694019471488 -8.393183379537756 0.9836552376621077
-157.46870653685676 -8.406509572938539 0.9803549735345907
-156.96801112656468 -8.419661875666428 0.977042367444316
-156.4673157162726 -8.432639413145846 0.9737175512733736
-155.96662030598054 -8.445441310801211 0.9703806569038596
-155.46592489568846 -8.45806669405695 0.9670318162178655
-154.96522948539638 -8.470514688337477 0.9636711610974811
-154.46453407510432 -8.482784419067212 0.9602988234248031
-153.96383866481224 -8.494875011670583 0.9569149350819208
-153.46314325452016 -8.506785591572001 0.9535196279509288
-152.9624478442281 -8.518515284195896 0.9501130339139181
-152.46175243393603 -8.530063214966688 0.9466952848529815
-151.96105702364395 -8.54142850930879 0.9432665126502127
-151.4603616133519 -8.552610292646627 0.9398268491877018
-150.9596662030598 -8.56360769040462 0.9363764263475434
-150.45897079276773 -8.574419828007187 0.9329153760118285
-149.95827538247568 -8.585045830878755 0.9294438300626517
-149.4575799721836 -8.59548482444374 0.9259619203821032
-148.9568845618915 -8.605735934126564 0.9224697788522758
-148.45618915159943 -8.615798285351646 0.9189675373552648
-147.95549374130738 -8.62567100354341 0.9154553277731579
-147.4547983310153 -8.63535321412627 0.9119332819880521
-146.95410292072324 -8.644844042524657 0.9084015318820369
-146.45340751043116 -8.654142614162982 0.9048602093372058
-145.95271210013908 -8.663248054465674 0.9013094462356508
-145.452016689847 -8.672159488857144 0.8977493744594656
-144.95132127955495 -8.68087604276182 0.894180125890742
-144.45062586926286 -8.689396841604122 0.8906018324115721
-143.94993045897078 -8.697721010808468 0.8870146259040477
-143.44923504867873 -8.705847675799285 0.8834186382502633
-142.94853963838665 -8.71377596200098 0.879814001332311
-142.44784422809457 -8.721504994837986 0.8762008470322817
-141.9471488178025 -8.729033899734723 0.8725793072322692
-141.44645340751043 -8.73636180211561 0.8689495138143652
-140.94575799721835 -8.743487827405065 0.8653115986606637
-140.44506258692627 -8.750411101027506 0.8616656936532545
-139.94436717663422 -8.757130748407361 0.8580119306742324
-139.44367176634213 -8.763645894969049 0.8543504416056902
-138.94297635605005 -8.769955666136987 0.8506813583297188
-138.442280945758 -8.776059187335601 0.8470048127284102
-137.94158553546592 -8.781955583989305 0.8433209366838581
-137.44089012517384 -8.787643981522525 0.8396298620781562
-136.94019471488178 -8.79312350535968 0.8359317207933945
-136.4394993045897 -8.798393280925191 0.8322266447116669
-135.93880389429762 -8.803452433643482 0.8285147657150651
-135.43810848400557 -8.808300088938967 0.8247962156856821
-134.9374130737135 -8.812935372236065 0.8210711265056105
-134.4367176634214 -8.81735740895921 0.8173396300569407
-133.93602225312935 -8.821565324532811 0.8136018582217706
-133.43532684283727 -8.825558244381291 0.8098579428821868
-132.9346314325452 -8.829335293929072 0.8061080159202849
-132.43393602225314 -8.832895598600574 0.8023522092181559
-131.93324061196105 -8.836238283820219 0.7985906546578925
-131.43254520166897 -8.839362475012429 0.7948234841215884
-130.93184979137692 -8.84226729760162 0.7910508294913365
-130.43115438108484 -8.844951877012218 0.787272822649226
-129.93045897079276 -8.847415338668633 0.7834895954773542
-129.4297635605007 -8.849656807995299 0.7797012798578085
-128.92906815020862 -8.851675410416629 0.7759080076726852
-128.42837273991654 -8.853470271357049 0.7721099108040745
-127.92767732962449 -8.855040516240976 0.7683071211340702
-127.4269819193324 -8.85638527049283 0.764499770544764
-126.92628650904032 -8.857503659537034 0.760687990918248
-126.42559109874827 -8.858394808798005 0.7568719141366176
-125.92489568845619 -8.859057843700171 0.7530516720819611
-125.42420027816411 -8.859491889667943 0.749227396636374
-124.92350486787205 -8.859696072125754 0.7453992196819466
-124.42280945757997 -8.859669516498009 0.7415672731007723
-123.92211404728789 -8.85941134820914 0.7377316887749459
-123.42141863699584 -8.858920692683569 0.7338925985865574
-122.92072322670376 -8.858196675345704 0.730050134417698
-122.42002781641168 -8.85723842161998 0.7262044281504629
-121.91933240611961 -8.856045056930814 0.7223556116669425
-121.41863699582754 -8.854615706702617 0.7185038168492313
-120.91794158553546 -8.852949496359829 0.7146491755794193
-120.41724617524339 -8.85104555132685 0.7107918197396021
-119.91655076495132 -8.848902997028109 0.7069318812118717
-119.41585535465924 -8.846520958888032 0.7030694918783171
-118.91515994436718 -8.84389856233103 0.6992047836210349
-118.41446453407511 -8.841034932781533 0.6953378883221151
-117.91376912378303 -8.837929195663957 0.6914689378636505
-117.41307371349096 -8.83458047640272 0.6875980641277348
-116.91237830319889 -8.830987900422254 0.6837253989964582
-116.41168289290681 -8.827150593146962 0.6798510743519162
-115.91098748261474 -8.82306768000128 0.6759752220761979
-115.41029207232268 -8.818738286409616 0.6720979740513997
-114.9095966620306 -8.814161537796407 0.6682194621596109
-114.40890125173853 -8.809336559586058 0.6643398182829243
-113.90820584144646 -8.804262477202997 0.6604591743034354
-113.40751043115438 -8.798938416071644 0.6565776621032307
-112.90681502086231 -8.793363501616419 0.652695413564411
-112.40611961057024 -8.787536859261744 0.6488125605690611
-111.90542420027816 -8.781457614432036 0.6449292349992775
-111.4047287899861 -8.77512489255172 0.6410455687371519
-110.90403337969401 -8.768537819045218 0.6371616936647755
-110.40333796940195 -8.761695519336943 0.6332777416642446
-109.90264255910988 -8.754597118851326 0.6293938446176475
-109.4019471488178 -8.747241743012774 0.6255101344070761
-108.90125173852573 -8.739628517245723 0.6216267429146287
-108.40055632823366 -8.731756566974584 0.6177438020223918
-107.89986091794158 -8.723625017623784 0.613861443612459
-107.39916550764951 -8.715232994617732 0.6099797995669267
-106.89847009735745 -8.706579623380863 0.6060990017678833
-106.39777468706536 -8.697664029337592 0.6022191820974216
-105.8970792767733 -8.688485337912336 0.5983404724376371
-105.39638386648123 -8.67904267452952 0.594463004670619
-104.89568845618915 -8.669335164613564 0.59058691067846
-104.39499304589708 -8.659361933588887 0.5867123223432558
-103.89429763560501 -8.649122106879904 0.5828393715470972
-103.39360222531293 -8.63861480991105 0.5789681901720745
-102.89290681502086 -8.62783916810674 0.5750989101002804
-102.3922114047288 -8.61679430689139 0.5712316632138121
-101.89151599443672 -8.605479351689429 0.5673665813947555
-101.39082058414465 -8.593893427925257 0.5635037965252094
-100.89012517385257 -8.582035661023323 0.5596434404872623
-100.3894297635605 -8.569905176408035 0.555785645163007
-99.88873435326843 -8.557501099503806 0.5519305424345371
-99.38803894297635 -8.544822555735067 0.5480782641839463
-98.88734353268428 -8.53186867052624 0.5442289422933213
-98.38664812239222 -8.518638569301736 0.5403827086447628
-97.88595271210013 -8.50513137748598 0.5365396951203565
-97.38525730180807 -8.491346220503397 0.5327000336022005
-96.884561891516 -8.477282223778406 0.5288638559723815
-96.38386648122392 -8.462938512735427 0.5250312941129958
-95.88317107093185 -8.448314212798875 0.5212024799061352
-95.38247566063978 -8.433408449393177 0.5173775452338927
-94.8817802503477 -8.418220347942757 0.5135566219783574
-94.38108484005564 -8.40274903387202 0.5097398420216257
-93.88038942976357 -8.38699363260541 0.5059273372457904
-93.37969401947149 -8.370953269567334 0.502119239532939
-92.87899860917942 -8.354627070182204 0.4983156807651697
-92.37830319888734 -8.338014159874461 0.49451679282457156
-91.87760778859527 -8.321113664068507 0.4907227075932384
-91.3769123783032 -8.303924708188774 0.48693355695326296
-90.87621696801112 -8.286446417659684 0.4831494727867372
-90.37552155771905 -8.26867791790565 0.479370586975753
-89.87482614742699 -8.250618334351092 0.4755970314024041
-89.3741307371349 -8.232266792420448 0.4718289379487815
-88.87343532684284 -8.213622417538108 0.468066438496978
-88.37273991655077 -8.194684335128525 0.46430966492908815
-87.87204450625869 -8.175451670616095 0.4605587491272021
-87.37134909596662 -8.155923549425257 0.45681382297341094
-86.87065368567455 -8.13609909698042 0.45307501834981273
-86.36995827538247 -8.115977438706008 0.4493424671384941
-85.8692628650904 -8.09555770002644 0.4456163012215513
-85.36856745479834 -8.074839006366137 0.4418966524810764
-84.86787204450626 -8.053820483149522 0.43818365279915766
-84.36717663421419 -8.03250125580102 0.43447743405789324
-83.86648122392211 -8.010880449745036 0.4307781281393733
-83.36578581363004 -7.988957190406009 0.4270858669256897
-82.86509040333797 -7.966730603208352 0.42340078229893346
-82.36439499304589 -7.944199813576481 0.4197230061412028
-81.86369958275382 -7.921363946934826 0.4160526703345842
-81.36300417246176 -7.898222128707801 0.4123899067611732
-80.86230876216968 -7.874773484319829 0.4087348473030608
-80.36161335187761 -7.851017139195329 0.4050876238423407
-79.86091794158554 -7.826952218758724 0.4014483682611048
-79.36022253129346 -7.802577848434436 0.3978172124414459
-78.85952712100139 -7.77789315364688 0.39419428826545505
-78.35883171070932 -7.7528972598204815 0.390579727615225
-77.85813630041724 -7.727589292379659 0.3869736623728513
-77.35744089012518 -7.701968376748833 0.3833762244204249
-76.85674547983311 -7.676033638352428 0.379787545640036
-76.35605006954103 -7.649784202614861 0.3762077579137782
-75.85535465924896 -7.623219194960554 0.37263699312374704
-75.35465924895689 -7.596337740813923 0.3690753831520291
-74.85396383866481 -7.5691389655993975 0.36552305988072337
-74.35326842837274 -7.541621994741388 0.3619801551919191
-73.85257301808066 -7.513785953664326 0.3584468009677047
-73.3518776077886 -7.485629967792623 0.3549231290901836
-72.85118219749653 -7.4571531625507115 0.35140927144143613
-72.35048678720445 -7.428354663362996 0.3479053599035605
-71.84979137691238 -7.39923359565391 0.3444115263586512
-71.34909596662031 -7.369789084847871 0.34092790268879664
-70.84840055632823 -7.34002025636929 0.3374546207760914
-70.34770514603616 -7.309926235642602 0.33399181250263005
-69.8470097357441 -7.279506148092229 0.3305396097504974
-69.34631432545201 -7.248759119142577 0.32709814440179424
-68.84561891515995 -7.217684274218073 0.3236675483386107
-68.34492350486788 -7.186280738743137 0.32024795344303786
-67.8442280945758 -7.154547638142195 0.31683949159716757
-67.34353268428373 -7.122484097839664 0.3134422946830971
-66.84283727399166 -7.090089243259972 0.31005649458291124
-66.34214186369958 -7.0573621998275184 0.306682223178709
-65.84144645340751 -7.024302092966747 0.3033196123525806
-65.34075104311543 -6.990908048102074 0.2999687939866161
-64.84005563282336 -6.957179190657906 0.29662989996291184
-64.3393602225313 -6.923114646058679 0.2933030621635589
-63.838664812239216 -6.8887135397288075 0.28998841247064916
-63.33796940194715 -6.8539749970927035 0.2866860827662772
-62.83727399165508 -6.818898143574814 0.2833962049325314
-62.336578581363 -6.783482104599536 0.28011891085150903
-61.83588317107093 -6.747726005591294 0.2768543324052975
-61.335187760778865 -6.7116289719745135 0.27360260147599585
-60.834492350486784 -6.675190129173612 0.2703638499456907
-60.333796940194716 -6.638408602613006 0.26713820969647745
-59.83310152990265 -6.601283517717133 0.2639258126104472
-59.33240611961057 -6.563813999910399 0.2607267905696918
-58.8317107093185 -6.525999174617227 0.25754127545630495
-58.33101529902643 -6.48783816726204 0.2543693991523795
-57.83031988873435 -6.449330103269248 0.2512112935400091
-57.329624478442284 -6.410474108063291 0.24806709050128478
-56.82892906815022 -6.371269307068579 0.24493692191829403
-56.328233657858135 -6.33171482570953 0.2418209196731403
-55.82753824756607 -6.291809789410568 0.23871921564790838
-55.326842837273986 -6.251553323596115 0.23563194172469198
-54.82614742698192 -6.210944553690595 0.23255922978558302
-54.32545201668985 -6.169982605118413 0.2295012117126734
-53.82475660639777 -6.128666603304017 0.22645801938806037
-53.3240611961057 -6.086995673671797 0.2234297846938323
-52.823365785813635 -6.044968941646199 0.22041663951208107
-52.322670375521554 -6.002585532651623 0.21741871572490395
-51.82197496522949 -5.959844572112515 0.21443614521438664
-51.321279554937405 -5.916745185453272 0.21146905986262637
-50.82058414464535 -5.873286498098321 0.2085175915517133
-50.31988873435327 -5.829467635472088 0.20558187216374196
-49.81919332406119 -5.785287722998982 0.2026620335808043
-49.318497913769136 -5.74074588610344 0.19975820768499225
-48.817802503477054 -5.695841250209865 0.1968705263583977
-48.31710709318497 -5.650572940742704 0.19399912148311343
-47.81641168289292 -5.604940083126348 0.19114412494123229
-47.31571627260084 -5.558941802785236 0.18830566861484793
-46.81502086230876 -5.5125772251437875 0.1854838843860505
-46.3143254520167 -5.465845475626415 0.1826789041369355
-45.81363004172462 -5.418745679657545 0.179890859749593
-45.31293463143254 -5.371276962661587 0.17711988310611498
-44.81223922114049 -5.323438450062983 0.1743661060885951
-44.311543810848406 -5.275229267286144 0.17162966057912615
-43.810848400556324 -5.22664853975548 0.1689106784597983
-43.31015299026427 -5.177695392895421 0.16620929161271053
-42.80945757997219 -5.128368952130405 0.163525631919945
-42.30876216968011 -5.078668342884814 0.16085983126360343
-41.808066759388026 -5.028592690583085 0.15821202152577235
-41.30737134909597 -4.978141120649674 0.15558233458854814
-40.80667593880389 -4.927312758508939 0.15297090233402272
-40.30598052851181 -4.876106729585344 0.1503778566442871
-39.80528511821976 -4.824522159303302 0.14780332940143498
-39.304589707927676 -4.772558173087229 0.1452474524875565
-38.803894297635594 -4.720213896361544 0.14271035778474533
-38.30319888734354 -4.6674884545506705 0.14019217717509697
-37.80250347705146 -4.614380973079028 0.13769304254070153
-37.30180806675938 -4.560890577371039 0.13521308576364915
-36.801112656467325 -4.5070163928511295 0.1327524387260371
-36.30041724617524 -4.45275754494371 0.1303112333099528
-35.79972183588316 -4.398113159073199 0.12788960139749
-35.29902642559111 -4.34308236066404 0.1254876748707459
-34.79833101529903 -4.287664275140619 0.12310558561180712
-34.297635605006946 -4.231858027927378 0.1207434655027691
-33.79694019471489 -4.175662744448745 0.11840144642572376
-33.29624478442281 -4.119077550129128 0.1160796602627639
-32.79554937413073 -4.062101570392934 0.11377823889598232
-32.294853963838676 -4.004733930664632 0.11149731420746917
-31.794158553546595 -3.9469737563685827 0.1092370180793199
-31.293463143254513 -3.8888201729292327 0.10699748239362378
-30.79276773296246 -3.830272305771026 0.10477883903247537
-30.29207232267038 -3.7713292803183407 0.10258121987796837
-29.791376912378297 -3.7119902219956344 0.1004047568121938
-29.290681502086244 -3.6522542562273124 0.09824958171724446
-28.789986091794162 -3.592120508437784 0.0961158264752105
-28.28929068150208 -3.531588104051475 0.09400362296818915
-27.788595271210028 -3.470656168492823 0.09191310307827055
-27.287899860917946 -3.409323827186241 0.08984439868754218
-26.787204450625865 -3.347590205556144 0.08779764167810394
-26.28650904033381 -3.2854544290269514 0.08577296393204864
-25.78581363004173 -3.222915623023087 0.08377049733146374
-25.28511821974965 -3.1599729129689633 0.08179037375844206
-24.784422809457595 -3.0966254242890363 0.07983272509507994
-24.283727399165514 -3.0328722824076797 0.07789768322346485
-23.783031988873432 -2.968712612749326 0.07598538002569494
-23.28233657858135 -2.904145540738422 0.07409594738385944
-22.781641168289298 -2.8391701917993695 0.07222951718004939
-22.280945757997216 -2.7737856913565873 0.07038622129635935
-21.780250347705135 -2.7079911648345023 0.06856619161488037
-21.27955493741308 -2.641785737657533 0.06676956001770878
-20.778859527121 -2.57516853525009 0.06499645838693208
-20.27816411682892 -2.5081386830366084 0.0632470186046466
-19.777468706536865 -2.440695306441506 0.061521372552943376
-19.276773296244784 -2.3728375308891936 0.059819652113913435
-18.776077885952702 -2.304564481804113 0.058141989169651354
-18.27538247566065 -2.2358752846106684 0.056488515602249934
-17.774687065368568 -2.166769064733269 0.0548593632938002
-17.273991655076486 -2.0972449475963595 0.05325466412639318
-16.773296244784433 -2.0273020586243566 0.05167454998212345
-16.27260083449235 -1.9569395232416642 0.05011915274308737
-15.77190542420027 -1.886156466872724 0.04858860429137063
-15.271210013908217 -1.814952014941947 0.047083036509066034
-14.770514603616135 -1.7433252928737513 0.045602581278271714
-14.269819193324054 -1.671275426092557 0.04414737048107514
-13.769123783032 -1.5988015400227968 0.04271753599956912
-13.268428372739919 -1.5259027600888746 0.04131320971584823
-12.767732962447838 -1.4525782117152104 0.03993452351200705
-12.267037552155784 -1.378827020326251 0.038581609270133044
-11.766342141863703 -1.3046483113463843 0.0372545988723208
-11.265646731571621 -1.2300412102000553 0.035953624200663115
-10.764951321279568 -1.1550048423116805 0.03467881713725457
-10.264255910987487 -1.0795383331056712 0.03343030956418086
-9.763560500695405 -1.0036408080064472 0.03220823336354367
-9.262865090403352 -0.9273113924384482 0.03101272041742692
-8.76216968011127 -0.8505492118260711 0.029843902607926964
-8.261474269819189 -0.7733533915937432 0.02870191181713838
-7.760778859527136 -0.695723057165911 0.027586879927148644
-7.260083449235054 -0.6176573339669431 0.02649893882005766
