Polar data for 1 at Re = 180000.0
Alpha (deg) Cl Cd
-180.0 -14.333619317335444 0.10337475076531089
-179.49930458970792 -14.334398107556602 0.10355841647632799
-178.99860917941587 -14.334927721222371 0.10374097287963835
-178.49791376912378 -14.335208264444788 0.10392240849872975
-177.9972183588317 -14.335239843335888 0.10410271185708977
-177.49652294853965 -14.33502256400768 0.10428187147820621
-176.99582753824757 -14.334556532572204 0.10445987588556666
-176.4951321279555 -14.333841855141486 0.10463671360265886
-175.99443671766343 -14.332878637827562 0.10481237315297051
-175.49374130737135 -14.331666986742452 0.10498684305998927
-174.99304589707927 -14.330207007998187 0.10516011184720281
-174.49235048678722 -14.328498807706787 0.10533216803809889
-173.99165507649514 -14.326542491980305 0.10550300015616512
-173.49095966620305 -14.32433816693074 0.10567259672488921
-172.990264255911 -14.321885938670132 0.10584094626775892
-172.48956884561892 -14.319185913310513 0.1060080373082618
-171.98887343532684 -14.31623819696392 0.10617385836988562
-171.48817802503476 -14.31304289574236 0.1063383979761181
-170.9874826147427 -14.30960011575787 0.10650164465044684
-170.48678720445062 -14.305909963122481 0.10666358691635966
-169.98609179415854 -14.301972543948228 0.10682421329734407
-169.4853963838665 -14.29778796434713 0.10698351231688791
-168.9847009735744 -14.293356330431212 0.1071414724984788
-168.48400556328232 -14.288677748312516 0.10729808236560442
-167.98331015299027 -14.283752324103062 0.1074533304417525
-167.4826147426982 -14.278580163914874 0.10760720525041072
-166.9819193324061 -14.273161373859988 0.10775969531506671
-166.48122392211405 -14.267496060050426 0.10791078915920822
-165.98052851182197 -14.261584328598236 0.10806047530632293
-165.4798331015299 -14.255426285615417 0.10820874227989853
-164.97913769123784 -14.249022037214012 0.10835557860342271
-164.47844228094576 -14.242371689506047 0.10850097280038307
-163.97774687065368 -14.235475348603554 0.10864491339426745
-163.47705146036162 -14.228333120618561 0.10878738890856343
-162.97635605006954 -14.220945111663095 0.10892838786675872
-162.47566063977746 -14.213311427849185 0.10906789879234102
-161.9749652294854 -14.205432175288866 0.10920591020879802
-161.47426981919332 -14.197307460094144 0.10934241063961746
-160.97357440890124 -14.188937388377074 0.10947738860828689
-160.4728789986092 -14.180322066249662 0.10961083263829412
-159.9721835883171 -14.171461599823957 0.1097427312531268
-159.47148817802503 -14.16235609521198 0.10987307297627258
-158.97079276773297 -14.153005658525757 0.11000184633121916
-158.4700973574409 -14.143410395877307 0.11012903984145431
-157.9694019471488 -14.133570413378674 0.11025464203046567
-157.46870653685676 -14.123485817141887 0.1103786414217409
-156.96801112656468 -14.113156713278961 0.11050102653876769
-156.4673157162726 -14.102583207901933 0.11062178590503378
-155.96662030598054 -14.091765407122836 0.11074090804402673
-155.46592489568846 -14.080703417053687 0.11085838147923438
-154.96522948539638 -14.069397343806518 0.11097419473414444
-154.46453407510432 -14.05784729349336 0.11108833633224437
-153.96383866481224 -14.04605337222624 0.11120079479702213
-153.46314325452016 -14.034015686117197 0.11131155865196518
-152.9624478442281 -14.021734341278236 0.1114206164205614
-152.46175243393603 -14.009209443821408 0.11152795662629834
-151.96105702364395 -13.996441099858725 0.11163356779266374
-151.4603616133519 -13.983429415502233 0.11173743844314529
-150.9596662030598 -13.970174496863947 0.11183955710123064
-150.45897079276773 -13.956676450055898 0.11193991229040755
-149.95827538247568 -13.942935381190118 0.11203849253416365
-149.4575799721836 -13.92895139637863 0.11213528635598671
-148.9568845618915 -13.914724601733461 0.11223028227936432
-148.45618915159943 -13.90025510336665 0.11232346882778413
-147.95549374130738 -13.885543007390211 0.11241483452473398
-147.4547983310153 -13.870588419916192 0.11250436789370145
-146.95410292072324 -13.855391447056604 0.11259205745817427
-146.45340751043116 -13.839952194923477 0.11267789174164015
-145.95271210013908 -13.824270769628843 0.11276185926758674
-145.452016689847 -13.808347277284746 0.11284394855950163
-144.95132127955495 -13.792181824003183 0.11292414814087268
-144.45062586926286 -13.775774515896206 0.11300244653518754
-143.94993045897078 -13.759125459075833 0.11307883226593388
-143.44923504867873 -13.742234759654103 0.11315329385659932
-142.94853963838665 -13.725102523743036 0.11322581983067156
-142.44784422809457 -13.707728857454658 0.11329639871163838
-141.9471488178025 -13.690113866900997 0.11336501902298747
-141.44645340751043 -13.672257658194098 0.11343166928820643
-140.94575799721835 -13.654160337445969 0.11349633803078298
-140.44506258692627 -13.635822010768646 0.11355901377420481
-139.94436717663422 -13.617242784274154 0.11361968504195963
-139.44367176634213 -13.598422764074538 0.11367834035753506
-138.94297635605005 -13.57936205628181 0.11373496824441882
-138.442280945758 -13.560060767007993 0.11378955722609871
-137.94158553546592 -13.540519002365134 0.11384209582606225
-137.44089012517384 -13.520736868465246 0.1138925725677972
-136.94019471488178 -13.500714471420373 0.11394097597479132
-136.4394993045897 -13.480451917342528 0.11398729457053215
-135.93880389429762 -13.459949312343742 0.11403151687850752
-135.43810848400557 -13.439206762536056 0.11407363142220502
-134.9374130737135 -13.418224374031482 0.11411362672511234
-134.4367176634214 -13.397002252942052 0.11415149131071727
-133.93602225312935 -13.375540505379806 0.1141872137025074
-133.43532684283727 -13.35383923745676 0.11422078242397044
-132.9346314325452 -13.331898555284958 0.11425218599859407
-132.43393602225314 -13.309718564976404 0.114281412949866
-131.93324061196105 -13.28729937264314 0.11430845180127397
-131.43254520166897 -13.264641084397198 0.11433329107630555
-130.93184979137692 -13.241743806350613 0.1143559192984485
-130.43115438108484 -13.218607644615389 0.11437632499119048
-129.93045897079276 -13.195232705303571 0.11439449667801914
-129.4297635605007 -13.171619094527195 0.11441042288242234
-128.92906815020862 -13.147766918398272 0.1144240921278876
-128.42837273991654 -13.123676283028836 0.11443549293790263
-127.92767732962449 -13.099347294530919 0.11444461383595517
-127.4269819193324 -13.074780059016547 0.11445144334553287
-126.92628650904032 -13.049974682597753 0.11445596999012347
-126.42559109874827 -13.02493127138656 0.11445818229321451
-125.92489568845619 -12.999649931494996 0.11445806877829388
-125.42420027816411 -12.974130769035092 0.11445561796884919
-124.92350486787205 -12.94837389011888 0.1144508183883681
-124.42280945757997 -12.922379400858379 0.11444365856033835
-123.92211404728789 -12.896147407365628 0.11443412700824744
-123.42141863699584 -12.86967801575264 0.11442221225558336
-122.92072322670376 -12.84297133213147 0.11440790282583357
-122.42002781641168 -12.816027462614123 0.1143911872424859
-121.91933240611961 -12.788846513312635 0.1143720540290279
-121.41863699582754 -12.76142859033903 0.11435049170894733
-120.91794158553546 -12.733773799805345 0.11432648880573199
-120.41724617524339 -12.705882247823599 0.11430003384286938
-119.91655076495132 -12.677754040505825 0.11427111534384725
-119.41585535465924 -12.649389283964055 0.11423972183215332
-118.91515994436718 -12.620788084310316 0.11420584183127522
-118.41446453407511 -12.591950547656637 0.11416946386470075
-117.91376912378303 -12.562876780115037 0.11413057645591745
-117.41307371349096 -12.533566887797551 0.11408916812841315
-116.91237830319889 -12.504020976816218 0.11404522740567546
-116.41168289290681 -12.474239153283047 0.11399874281119204
-115.91098748261474 -12.444221523310077 0.1139497028684507
-115.41029207232268 -12.413968193009339 0.11389809610093894
-114.9095966620306 -12.383479268492856 0.11384391103214465
-114.40890125173853 -12.35275485587266 0.11378713618555539
-113.90820584144646 -12.321795061260772 0.11372776008465885
-113.40751043115438 -12.290599990769223 0.11366577125294285
-112.90681502086231 -12.259169750510054 0.11360115821389484
-112.40611961057024 -12.227504446595283 0.11353390949100273
-111.90542420027816 -12.195604185136936 0.11346401360775413
-111.4047287899861 -12.163469072247047 0.11339145908763669
-110.90403337969401 -12.131099214037633 0.11331623445413813
-110.40333796940195 -12.098494716620749 0.11323832823074619
-109.90264255910988 -12.065655686108393 0.11315772894094847
-109.4019471488178 -12.032582228612611 0.11307442510823265
-108.90125173852573 -11.999274450245423 0.11298840525608651
-108.40055632823366 -11.965732457118868 0.11289965790799766
-107.89986091794158 -11.931956355344958 0.11280817158745389
-107.39916550764951 -11.89794625103574 0.11271393481794276
-106.89847009735745 -11.863702250303234 0.11261693612295202
-106.39777468706536 -11.829224459259457 0.11251716402596941
-105.8970792767733 -11.794512984016457 0.1124146070504825
-105.39638386648123 -11.759567930686252 0.11230925371997905
-104.89568845618915 -11.724389405380869 0.11220109255794675
-104.39499304589708 -11.688977514212354 0.11209011208787327
-103.89429763560501 -11.653332363292712 0.11197630083324625
-103.39360222531293 -11.617454058733976 0.11185964731755342
-102.89290681502086 -11.581342706648186 0.11174014006428265
-102.3922114047288 -11.544998413147361 0.11161776759692128
-101.89151599443672 -11.508421284343534 0.11149251843895734
-101.39082058414465 -11.471611426348723 0.11136438111387822
-100.89012517385257 -11.434568945274975 0.11123334414517176
-100.3894297635605 -11.397293947234303 0.11109939605632566
-99.88873435326843 -11.359786538338746 0.11096252537082758
-99.38803894297635 -11.322046824700323 0.11082272061216518
-98.88734353268428 -11.284074912431052 0.11067997030382629
-98.38664812239222 -11.245870907643003 0.11053426296929836
-97.88595271210013 -11.207434916448165 0.11038558713206917
-97.38525730180807 -11.168767044958578 0.11023393131562649
-96.884561891516 -11.129867399286276 0.1100792840434579
-96.38386648122392 -11.090736085543277 0.10992163383905125
-95.88317107093185 -11.051373209841621 0.10976096922589407
-95.38247566063978 -11.011778878293327 0.10959727872747409
-94.8817802503477 -10.971953197010421 0.10943055086727906
-94.38108484005564 -10.93189627210495 0.10926077416879659
-93.88038942976357 -10.891608209688926 0.10908793715551439
-93.37969401947149 -10.851089115874373 0.10891202835092018
-92.87899860917942 -10.810339096773333 0.1087330362785016
-92.37830319888734 -10.769358258497832 0.1085509494617464
-91.87760778859527 -10.728146707159894 0.10836575642414215
-91.3769123783032 -10.686704548871546 0.10817744568917663
-90.87621696801112 -10.645031889744821 0.10798600578033758
-90.37552155771905 -10.603128835891745 0.1077914252211125
-89.87482614742699 -10.56099549342435 0.10759369253498927
-89.3741307371349 -10.518631968454663 0.10739279624545563
-88.87343532684284 -10.47603836709471 0.10718872487599898
-88.37273991655077 -10.433214795456514 0.10698146695010725
-87.87204450625869 -10.390161359652126 0.10677101099126801
-87.37134909596662 -10.346878165793541 0.10655734552296905
-86.87065368567455 -10.303365319992821 0.10634045906869795
-86.36995827538247 -10.259622928361964 0.10612034015194255
-85.8692628650904 -10.215651097013023 0.10589697729619026
-85.36856745479834 -10.17144993205801 0.10567035902492905
-84.86787204450626 -10.127019539608959 0.10544047386164655
-84.36717663421419 -10.082360025777895 0.10520731032983029
-83.86648122392211 -10.037471496676872 0.10497085695296808
-83.36578581363004 -9.992354058417881 0.1047311022545476
-82.86509040333797 -9.947007817112969 0.10448803475805657
-82.36439499304589 -9.90143287887416 0.10424164298698256
-81.86369958275382 -9.855629349813498 0.10399191546481343
-81.36300417246176 -9.809597336042977 0.10373884071503674
-80.86230876216968 -9.763336943674645 0.1034824072611403
-80.36161335187761 -9.716848278820557 0.10322260362661163
-79.86091794158554 -9.670131447592695 0.10295941833493848
-79.36022253129346 -9.623186556103114 0.10269283990960862
-78.85952712100139 -9.576013710463833 0.1024228568741097
-78.35883171070932 -9.528613016786885 0.10214945775192932
-77.85813630041724 -9.480984581184302 0.10187263106655527
-77.35744089012518 -9.43312850976811 0.10159236534147514
-76.85674547983311 -9.385044908650329 0.10130864910017681
-76.35605006954103 -9.336733883943005 0.10102147086614771
-75.85535465924896 -9.28819554175815 0.10073081916287573
-75.35465924895689 -9.239429988207796 0.10043668251384848
-74.85396383866481 -9.190437329403963 0.1001390494425537
-74.35326842837274 -9.141217671458719 0.09983790847247885
-73.85257301808066 -9.091771120484033 0.09953324812711195
-73.3518776077886 -9.04209778259198 0.09922505692994042
-72.85118219749653 -8.992197763894566 0.09891332340445227
-72.35048678720445 -8.942071170503823 0.09859803607413481
-71.84979137691238 -8.891718108531784 0.09827918346247598
-71.34909596662031 -8.841138684090488 0.09795675409296337
-70.84840055632823 -8.790333003291934 0.09763073648908464
-70.34770514603616 -8.739301172248176 0.09730111917432757
-69.8470097357441 -8.68804329707124 0.09696789067217983
-69.34631432545201 -8.636559483873128 0.09663103950612904
-68.84561891515995 -8.584849838765905 0.09629055419966294
-68.34492350486788 -8.532914467861588 0.09594642327626923
-67.8442280945758 -8.48075347727218 0.09559863525943549
-67.34353268428373 -8.428366973109753 0.0952471786726496
-66.84283727399166 -8.375755061486295 0.0948920420393991
-66.34214186369958 -8.32291784851386 0.09453321388317172
-65.84144645340751 -8.269855440304475 0.0941706827274551
-65.34075104311543 -8.216567942970144 0.09380443709573714
-64.84005563282336 -8.163055462622914 0.09343446551150521
-64.3393602225313 -8.109318105374818 0.09306075649824724
-63.838664812239216 -8.05535597733789 0.09268329857945078
-63.33796940194715 -8.001169184624139 0.09230208027860354
-62.83727399165508 -7.9467578333456 0.09191709011919334
-62.336578581363 -7.892122029614306 0.0915283166247077
-61.83588317107093 -7.837261879542268 0.09113574831863434
-61.335187760778865 -7.782177489241562 0.09073937372446092
-60.834492350486784 -7.726868964824156 0.09033918136567538
-60.333796940194716 -7.671336412402113 0.08993515976576515
-59.83310152990265 -7.615579938087457 0.08952729744821789
-59.33240611961057 -7.559599647992222 0.08911558293652157
-58.8317107093185 -7.503395648228405 0.08870000475416348
-58.33101529902643 -7.446968044908068 0.08828055142463172
-57.83031988873435 -7.390316944143244 0.08785721147141362
-57.329624478442284 -7.333442452045929 0.08742997341799705
-56.82892906815022 -7.276344674728172 0.08699882578786984
-56.328233657858135 -7.2190237183020045 0.08656375710451934
-55.82753824756607 -7.161479688879439 0.08612475589143333
-55.326842837273986 -7.103712692572536 0.08568181067209973
-54.82614742698192 -7.045722835493287 0.08523490997000609
-54.32545201668985 -6.987510223753723 0.08478404230864
-53.82475660639777 -6.929074963465908 0.08432919621148936
-53.3240611961057 -6.87041716074183 0.08387036020204161
-52.823365785813635 -6.811536921693538 0.0834075228037846
-52.322670375521554 -6.752434352433063 0.08294067254020591
-51.82197496522949 -6.693109559072425 0.08246979793479345
-51.321279554937405 -6.63356264772365 0.0819948875110346
-50.82058414464535 -6.573793724498778 0.08151592979241726
-50.31988873435327 -6.513802895509819 0.08103291330242919
-49.81919332406119 -6.453590266868829 0.08054582656455765
-49.318497913769136 -6.39315594468782 0.08005465810229082
-48.817802503477054 -6.332500035078809 0.07955939643911614
-48.31710709318497 -6.27162264415383 0.07906003009852139
-47.81641168289292 -6.2105238780249366 0.07855654760399423
-47.31571627260084 -6.149203842804134 0.07804893747902242
-46.81502086230876 -6.087662644603441 0.07753718824709345
-46.3143254520167 -6.025900389534918 0.07702128843169515
-45.81363004172462 -5.963917183710578 0.07650122655631512
-45.31293463143254 -5.901713133242438 0.07597699114444108
-44.81223922114049 -5.839288344242526 0.07544857071956085
-44.311543810848406 -5.7766429228229015 0.07491595380516207
-43.810848400556324 -5.713776975095541 0.0743791289247322
-43.31015299026427 -5.650690607172535 0.07383808460175921
-42.80945757997219 -5.5873839251658595 0.07329280935973084
-42.30876216968011 -5.523857035187568 0.0727432917221344
-41.808066759388026 -5.460110043349687 0.0721895202124578
-41.30737134909597 -5.396143055764242 0.07163148335418891
-40.80667593880389 -5.3319561785432725 0.07106916967081493
-40.30598052851181 -5.267549517798777 0.07050256768582398
-39.80528511821976 -5.2029231796428235 0.06993166592270385
-39.304589707927676 -5.138077270187409 0.06935645290494166
-38.803894297635594 -5.0730118955445676 0.06877691715602557
-38.30319888734354 -5.007727161826345 0.06819304719944319
-37.80250347705146 -4.942223175144747 0.06760483155868205
-37.30180806675938 -4.87650004161182 0.06701225875722998
-36.801112656467325 -4.81055786733959 0.06641531731857475
-36.30041724617524 -4.744396758440068 0.06581399576620374
-35.79972183588316 -4.678016821025302 0.06520828262360505
-35.29902642559111 -4.611418161207318 0.06459816641426606
-34.79833101529903 -4.544600885098134 0.06398363566167443
-34.297635605006946 -4.477565098809784 0.06336467888931788
-33.79694019471489 -4.4103109084543135 0.06274128462068437
-33.29624478442281 -4.342838420143707 0.062113441379261336
-32.79554937413073 -4.275147739990032 0.0614811376885365
-32.294853963838676 -4.207238974105316 0.0608443620719977
-31.794158553546595 -4.1391122286015545 0.060203103053132354
-31.293463143254513 -4.070767609590817 0.05955734915542822
-30.79276773296246 -4.002205223185115 0.05890708890237335
-30.29207232267038 -3.9334251754964735 0.05825231081745484
-29.791376912378297 -3.8644275726368984 0.05759300342416085
-29.290681502086244 -3.7952125207184717 0.05692915524597893
-28.789986091794162 -3.7257801258531695 0.05626075480639667
-28.28929068150208 -3.6561304941530604 0.055587790628901734
-27.788595271210028 -3.586263731730163 0.054910251236981955
-27.287899860917946 -3.5161799446964674 0.0542281251541252
-26.787204450625865 -3.4458792391640567 0.053541400903818634
-26.28650904033381 -3.3753617212449423 0.05285006700955035
-25.78581363004173 -3.3046274970511287 0.052154111994807864
-25.28511821974965 -3.233676672694656 0.05145352438307879
-24.784422809457595 -3.1625093542875855 0.05074829269785135
-24.283727399165514 -3.0911256479418863 0.05003840546261257
-23.783031988873432 -3.0195256597696196 0.04932385120085034
-23.28233657858135 -2.9477094958828327 0.048604618436052585
-22.781641168289298 -2.875677262393537 0.047880695691706776
-22.280945757997216 -2.8034290654137375 0.047152071491300476
-21.780250347705135 -2.7309650110555093 0.04641873435832178
-21.27955493741308 -2.65828520543085 0.045680672816258025
-20.778859527121 -2.585389754651764 0.04493787538859691
-20.27816411682892 -2.512278764830334 0.044190330598826266
-19.777468706536865 -2.4389523420785646 0.04343802697043389
-19.276773296244784 -2.3654105925084745 0.04268095302690694
-18.776077885952702 -2.291653622232104 0.04191909729173392
-18.27538247566065 -2.217681537361464 0.04115244828840195
-17.774687065368568 -2.1434944440086166 0.040380994540398604
-17.273991655076486 -2.069092448285566 0.039604724571212085
-16.773296244784433 -1.994475656304345 0.038823626904329736
-16.27260083449235 -1.9196441741769728 0.038037690063239246
-15.77190542420027 -1.8445981080155032 0.03724690257142846
-15.271210013908217 -1.7693375639319338 0.03645125295238495
-14.770514603616135 -1.6938626480383188 0.0356507297295964
-14.269819193324054 -1.6181734664466627 0.03484532142655046
-13.769123783032 -1.5422701252690127 0.03403501656673513
-13.268428372739919 -1.466152730617409 0.033219803673637666
-12.767732962447838 -1.3898213886038344 0.0323996712707459
-12.267037552155784 -1.3132762053403577 0.03157460788154774
-11.766342141863703 -1.2365172869389833 0.03074460202953057
-11.265646731571621 -1.1595447395117726 0.029909642238182432
