Polar data for 2 at Re = 88571.42857142858
Alpha (deg) Cl Cd
-180.0 -6.35785799373275 0.37381976992317084
-179.49930458970792 -6.36860818289753 0.37291677988550614
-178.99860917941587 -6.3792449842447905 0.3720090003417295
-178.49791376912378 -6.389767966889915 0.3710964674621697
-177.9972183588317 -6.400176699948289 0.3701792174171557
-177.49652294853965 -6.410470752535302 0.3692572863770162
-176.99582753824757 -6.420649693766336 0.3683307105120803
-176.4951321279555 -6.430713092756779 0.3673995259926765
-175.99443671766343 -6.440660518622018 0.3664637689891343
-175.49374130737135 -6.450491540477437 0.36552347567178184
-174.99304589707927 -6.460205727438422 0.3645786822109491
-174.49235048678722 -6.469802648620362 0.36362942477696375
-173.99165507649514 -6.479281873138639 0.3626757395401556
-173.49095966620305 -6.488642970108642 0.3617176626708531
-172.990264255911 -6.497885508645757 0.3607552303393852
-172.48956884561892 -6.507009057865368 0.35978847871608083
-171.98887343532684 -6.516013186882862 0.3588174439712693
-171.48817802503476 -6.524897464813625 0.3578421622752787
-170.9874826147427 -6.533661460773043 0.35686266979843867
-170.48678720445062 -6.542304743876505 0.35587900271107725
-169.98609179415854 -6.55082688323939 0.3548911971835242
-169.4853963838665 -6.559227447977092 0.3538992893861079
-168.9847009735744 -6.56750600720499 0.3529033154891575
-168.48400556328232 -6.575662130038474 0.35190331166300187
-167.98331015299027 -6.5836953855929305 0.35089931407796987
-167.4826147426982 -6.591605342983744 0.3498913589043903
-166.9819193324061 -6.599391571326301 0.3488794823125922
-166.48122392211405 -6.607053639735987 0.3478637204729043
-165.98052851182197 -6.614591117328189 0.34684410955565576
-165.4798331015299 -6.622003573218292 0.345820685731175
-164.97913769123784 -6.629290576521681 0.3447934851697915
-164.47844228094576 -6.636451696353747 0.34376254404183365
-163.97774687065368 -6.643486501829869 0.34272789851763047
-163.47705146036162 -6.650394562065438 0.34168958476751116
-162.97635605006954 -6.65717544617584 0.3406476389618042
-162.47566063977746 -6.663828723276458 0.33960209727083907
-161.9749652294854 -6.670353962482679 0.338552995864944
-161.47426981919332 -6.676750732909893 0.3375003709144481
-160.97357440890124 -6.683018603673478 0.33644425858968047
-160.4728789986092 -6.689157143888826 0.33538469506096996
-159.9721835883171 -6.695165922671324 0.33432171649864534
-159.47148817802503 -6.701044509136356 0.33325535907303555
-158.97079276773297 -6.706792472399304 0.33218565895446955
-158.4700973574409 -6.71240938157556 0.33111265231327586
-157.9694019471488 -6.717894805780508 0.33003637531978386
-157.46870653685676 -6.723248314129535 0.32895686414432207
-156.96801112656468 -6.7284694757380255 0.32787415495721967
-156.4673157162726 -6.7335578597213654 0.3267882839288056
-155.96662030598054 -6.73851303519494 0.3256992872294086
-155.46592489568846 -6.743334571274138 0.3246072010293574
-154.96522948539638 -6.748022037074344 0.3235120614989812
-154.46453407510432 -6.752575001710943 0.3224139048086087
-153.96383866481224 -6.756993034299324 0.3213127671285691
-153.46314325452016 -6.761275703954867 0.3202086846291909
-152.9624478442281 -6.765422579792967 0.31910169348080303
-152.46175243393603 -6.769433230929003 0.3179918298537345
-151.96105702364395 -6.773307226478364 0.3168791299183144
-151.4603616133519 -6.7770441355564355 0.31576362984487133
-150.9596662030598 -6.7806435272786025 0.3146453658037344
-150.45897079276773 -6.78410497076025 0.3135243739652322
-149.95827538247568 -6.787428035116768 0.3124006904996938
-149.4575799721836 -6.790612289463541 0.31127435157744826
-148.9568845618915 -6.7936573029159515 0.31014539336882446
-148.45618915159943 -6.79656264458939 0.30901385204415116
-147.95549374130738 -6.799327883599242 0.30787976377375686
-147.4547983310153 -6.801952589060891 0.3067431647279714
-146.95410292072324 -6.804436330089725 0.3056040910771229
-146.45340751043116 -6.80677867580113 0.30446257899154067
-145.95271210013908 -6.80897919531049 0.3033186646415528
-145.452016689847 -6.811037457733194 0.30217238419748943
-144.95132127955495 -6.812953032184625 0.30102377382967876
-144.45062586926286 -6.814725487780173 0.2998728697084491
-143.94993045897078 -6.816354393635221 0.29871970800413034
-143.44923504867873 -6.817839318865156 0.29756432488705137
-142.94853963838665 -6.819179832585361 0.29640675652754095
-142.44784422809457 -6.820375503911224 0.29524703909592737
-141.9471488178025 -6.821425901958136 0.29408520876254
-141.44645340751043 -6.822330595841477 0.29292130169770764
-140.94575799721835 -6.823089154676634 0.29175535407175895
-140.44506258692627 -6.823701147578994 0.29058740205502337
-139.94436717663422 -6.824166143663943 0.2894174818178296
-139.44367176634213 -6.824483712046868 0.2882456295305064
-138.94297635605005 -6.824653421843152 0.2870718813633825
-138.442280945758 -6.824674842168186 0.2858962734867873
-137.94158553546592 -6.824547542137349 0.2847188420710491
-137.44089012517384 -6.8242710908660325 0.28353962328649746
-136.94019471488178 -6.823845057469621 0.2823586533034607
-136.4394993045897 -6.8232690110635 0.28117596829226804
-135.93880389429762 -6.822542520763058 0.27999160442324794
-135.43810848400557 -6.821665155683677 0.27880559786673004
-134.9374130737135 -6.8206364849407475 0.2776179847930426
-134.4367176634214 -6.819456077649653 0.27642880137251463
-133.93602225312935 -6.818123502925777 0.2752380837754755
-133.43532684283727 -6.81663832988451 0.27404586817225324
-132.9346314325452 -6.815000127641236 0.2728521907331775
-132.43393602225314 -6.813208465311341 0.2716570876285768
-131.93324061196105 -6.811262912010209 0.2704605950287801
-131.43254520166897 -6.809163036853233 0.26926274910411613
-130.93184979137692 -6.80690840895579 0.2680635860249145
-130.43115438108484 -6.804498597433275 0.26686314196150324
-129.93045897079276 -6.801933171401066 0.265661453084212
-129.4297635605007 -6.799211699974554 0.2644585555633691
-128.92906815020862 -6.796333752269122 0.2632544855693035
-128.42837273991654 -6.793298897400158 0.2620492792723443
-127.92767732962449 -6.790106704483048 0.26084297284282026
-127.4269819193324 -6.786756742633175 0.2596356024510604
-126.92628650904032 -6.78324858096593 0.25842720426739335
-126.42559109874827 -6.779581788596698 0.25721781446214836
-125.92489568845619 -6.775755934640861 0.2560074692056539
-125.42420027816411 -6.771770588213807 0.2547962046682392
-124.92350486787205 -6.767625318430925 0.2535840570202332
-124.42280945757997 -6.763319694407599 0.25237106243196433
-123.92211404728789 -6.758853285259212 0.2511572570737625
-123.42141863699584 -6.754225660101156 0.24994267711595514
-122.92072322670376 -6.749436388048812 0.2487273587288727
-122.42002781641168 -6.744485038217567 0.24751133808284237
-121.91933240611961 -6.739371179722811 0.2462946513481949
-121.41863699582754 -6.734094381679922 0.2450773346952581
-120.91794158553546 -6.728654213204294 0.24385942429436075
-120.41724617524339 -6.7230502434113095 0.242640956315832
-119.91655076495132 -6.717282041416356 0.241421966930001
-119.41585535465924 -6.711349176334815 0.2402024923071961
-118.91515994436718 -6.705251217282079 0.23898256861774686
-118.41446453407511 -6.69898773337353 0.23776223203198138
-117.91376912378303 -6.692558293724554 0.2365415187202295
-117.41307371349096 -6.685962467450539 0.2353204648528195
-116.91237830319889 -6.679199823666874 0.2340991066000801
-116.41168289290681 -6.672269931488936 0.23287748013234072
-115.91098748261474 -6.665172360032118 0.23165562161993009
-115.41029207232268 -6.657906678411804 0.23043356723317715
-114.9095966620306 -6.650472455743381 0.2292113531424102
-114.40890125173853 -6.642869261142232 0.22798901551795886
-113.90820584144646 -6.635096663723749 0.22676659053015208
-113.40751043115438 -6.627154232603312 0.22554411434931748
-112.90681502086231 -6.619041536896306 0.2243216231457858
-112.40611961057024 -6.610758145718124 0.22309915308988487
-111.90542420027816 -6.602303628184149 0.22187674035194344
-111.4047287899861 -6.593677553409764 0.22065442110229178
-110.90403337969401 -6.5848794905103585 0.21943223151125663
-110.40333796940195 -6.575909008601318 0.2182102077491685
-109.90264255910988 -6.566765676798029 0.21698838598635567
-109.4019471488178 -6.557449064215872 0.21576680239314733
-108.90125173852573 -6.547958739970243 0.21454549313987242
-108.40055632823366 -6.53829427317652 0.21332449439685902
-107.89986091794158 -6.528455232950092 0.21210384233443652
-107.39916550764951 -6.518441188406342 0.21088357312293476
-106.89847009735745 -6.508251708660665 0.20966372293268137
-106.39777468706536 -6.497886362828435 0.20844432793400508
-105.8970792767733 -6.487344720025046 0.20722542429723617
-105.39638386648123 -6.4766263493658816 0.20600704819270205
-104.89568845618915 -6.465730819966328 0.20478923579073255
-104.39499304589708 -6.454657700941769 0.20357202326165663
-103.89429763560501 -6.443406561407596 0.2023554467758028
-103.39360222531293 -6.431976970479187 0.20113954250350025
-102.89290681502086 -6.420368497271937 0.1999243466150768
-102.3922114047288 -6.408580710901229 0.19870989528086297
-101.89151599443672 -6.396613180482447 0.19749622467118616
-101.39082058414465 -6.384465475130975 0.1962833709563771
-100.89012517385257 -6.372137163962204 0.19507137030676275
-100.3894297635605 -6.359627816091519 0.1938602588926725
-99.88873435326843 -6.346937000634304 0.19265007288443642
-99.38803894297635 -6.334064286705945 0.19144084845238213
-98.88734353268428 -6.321009243421831 0.19023262176683903
-98.38664812239222 -6.307771439897346 0.18902542899813563
-97.88595271210013 -6.294350445247874 0.18781930631660176
-97.38525730180807 -6.280745828588804 0.18661428989256507
-96.884561891516 -6.266957159035523 0.18541041589635582
-96.38386648122392 -6.252984005703413 0.18420772049830164
-95.88317107093185 -6.238825937707863 0.18300623986873193
-95.38247566063978 -6.224482524164259 0.18180601017797565
-94.8817802503477 -6.2099533341879845 0.18060706759636108
-94.38108484005564 -6.195237936894429 0.1794094482942185
-93.88038942976357 -6.180335901398976 0.178213188441876
-93.37969401947149 -6.165246796817014 0.1770183242096614
-92.87899860917942 -6.1499701922639245 0.17582489176790567
-92.37830319888734 -6.134505656855101 0.1746329272869362
-91.87760778859527 -6.118852759705922 0.17344246693708282
-91.3769123783032 -6.103011069931774 0.17225354688867384
-90.87621696801112 -6.086980156648051 0.17106620331203798
-90.37552155771905 -6.070759588970129 0.16988047237750487
-89.87482614742699 -6.054348936013398 0.16869639025540278
-89.3741307371349 -6.0377477668932515 0.16751399311606024
-88.87343532684284 -6.020955650725061 0.16633331712980753
-88.37273991655077 -6.003972156624223 0.1651543984669725
-87.87204450625869 -5.98679685370612 0.1639772732978843
-87.37134909596662 -5.969429311086141 0.16280197779287103
-86.87065368567455 -5.951869097879669 0.16162854812226318
-86.36995827538247 -5.934115783202091 0.1604570204563886
-85.8692628650904 -5.9161689361687895 0.15928743096557668
-85.36856745479834 -5.8980281258951575 0.15811981582015594
-84.86787204450626 -5.8796929214965745 0.15695421119045488
-84.36717663421419 -5.86116289208843 0.1557906532468029
-83.86648122392211 -5.8424376067861115 0.15462917815952987
-83.36578581363004 -5.823516634705001 0.15346982209896293
-82.86509040333797 -5.804399544960487 0.1523126212354317
-82.36439499304589 -5.785085906667956 0.1511576117392654
-81.86369958275382 -5.765575288942791 0.1500048297807925
-81.36300417246176 -5.74586726090038 0.14885431153034173
-80.86230876216968 -5.725961391656112 0.1477060931582423
-80.36161335187761 -5.705857250325368 0.1465602108348238
-79.86091794158554 -5.685554406023534 0.14541670073041385
-79.36022253129346 -5.665052427866005 0.14427559901534187
-78.85952712100139 -5.644350884968155 0.1431369418599368
-78.35883171070932 -5.623449346445374 0.1420007654345276
-77.85813630041724 -5.60234738141305 0.14086710590944324
-77.35744089012518 -5.581044558986571 0.13973599945501286
-76.85674547983311 -5.559540448281317 0.13860748224156455
-76.35605006954103 -5.537834618412679 0.13748159043942726
-75.85535465924896 -5.515926638496045 0.1363583602189306
-75.35465924895689 -5.493816077646792 0.13523782775040288
-74.85396383866481 -5.471502504980314 0.13412002920417326
-74.35326842837274 -5.448985489611992 0.13300500075057137
-73.85257301808066 -5.426264600657215 0.13189277855992415
-73.3518776077886 -5.4033394072313685 0.1307833988025628
-72.85118219749653 -5.380209478449842 0.12967689764881424
-72.35048678720445 -5.356874383428013 0.12857331126900856
-71.84979137691238 -5.333333691281275 0.12747267583347427
-71.34909596662031 -5.309586971125014 0.12637502751254076
-70.84840055632823 -5.285633792074609 0.1252804024765361
-70.34770514603616 -5.261473723245452 0.12418883689578968
-69.8470097357441 -5.237106333752932 0.12310036694062958
-69.34631432545201 -5.212531192712424 0.12201502878138586
-68.84561891515995 -5.187747869239323 0.12093285858838747
-68.34492350486788 -5.162755932449015 0.11985389253196248
-67.8442280945758 -5.137554951456881 0.1187781667824394
-67.34353268428373 -5.112144495378312 0.11770571751014873
-66.84283727399166 -5.086524133328692 0.11663658088541788
-66.34214186369958 -5.060693434423404 0.11557079307857647
-65.84144645340751 -5.034651967777838 0.11450839025995323
-65.34075104311543 -5.0083993025073825 0.11344940859987689
-64.84005563282336 -4.981935007727414 0.11239388426867684
-64.3393602225313 -4.95525865255333 0.11134185343668161
-63.838664812239216 -4.928369806100509 0.11029335227422014
-63.33796940194715 -4.901268037484334 0.1092484169516214
-62.83727399165508 -4.873952915820205 0.1082070836392141
-62.336578581363 -4.846424010223495 0.10716938850732675
-61.83588317107093 -4.81868088980959 0.106135367726289
-61.335187760778865 -4.790723123693886 0.10510505746643
-60.834492350486784 -4.7625502809917615 0.10407849389807737
-60.333796940194716 -4.734161930818602 0.10305571319156163
-59.83310152990265 -4.705557642289797 0.10203675151721041
-59.33240611961057 -4.676736984520734 0.10102164504535309
-58.8317107093185 -4.647699526626793 0.10001042994631797
-58.33101529902643 -4.618444837723365 0.09900314239043422
-57.83031988873435 -4.588972486925833 0.09799981854803212
-57.329624478442284 -4.559282043349583 0.09700049458943909
-56.82892906815022 -4.529373076110005 0.09600520668498362
-56.328233657858135 -4.499245154322484 0.09501399100499601
-55.82753824756607 -4.468897847102399 0.09402688371980387
-55.326842837273986 -4.438330723565144 0.09304392099973728
-54.82614742698192 -4.407543352826103 0.09206513901512452
-54.32545201668985 -4.376535304000662 0.09109057393629387
-53.82475660639777 -4.345306146204209 0.09012026193357585
-53.3240611961057 -4.313855448552122 0.08915423917729763
-52.823365785813635 -4.282182780159797 0.08819254183778928
-52.322670375521554 -4.2502877101426115 0.08723520608537909
-51.82197496522949 -4.218169807615961 0.08628226809039623
-51.321279554937405 -4.185828641695222 0.08533376402316943
-50.82058414464535 -4.1532637814957845 0.08438973005402743
-50.31988873435327 -4.120474796133038 0.08345020235329963
-49.81919332406119 -4.087461254722362 0.08251521709131453
-49.318497913769136 -4.054222726379146 0.08158481043840175
-48.817802503477054 -4.020758780218777 0.08065901856488893
-48.31710709318497 -3.987068985356636 0.07973787764110522
-47.81641168289292 -3.95315291090812 0.07882142383738049
-47.31571627260084 -3.9190101259886063 0.077909693324043
-46.81502086230876 -3.884640199713475 0.07700272227142128
-46.3143254520167 -3.8500427011981273 0.07610054684984517
-45.81363004172462 -3.8152171995579423 0.07520320322964318
-45.31293463143254 -3.780163263908298 0.0743107275811438
-44.81223922114049 -3.744880463364595 0.07342315607467602
-44.311543810848406 -3.7093683670422113 0.07254052488056921
-43.810848400556324 -3.6736265440565283 0.07166287016915145
-43.31015299026427 -3.6376545635229416 0.07079022811075279
-42.80945757997219 -3.601451994556834 0.0699226348757002
-42.30876216968011 -3.565018406273584 0.0690601266343253
-41.808066759388026 -3.528353367788588 0.06820273955695437
-41.30737134909597 -3.491456448217237 0.06735050981391859
-40.80667593880389 -3.454327216674896 0.06650347357554558
-40.30598052851181 -3.416965242276964 0.06566166701216385
-39.80528511821976 -3.379370094138837 0.06482512629410324
-39.304589707927676 -3.34154134137588 0.06399388759169226
-38.803894297635594 -3.3034785531034903 0.06316798707525899
-38.30319888734354 -3.2651812984370636 0.06234746091513414
-37.80250347705146 -3.22664914649196 0.061532345281644904
-37.30180806675938 -3.1878816663835874 0.060722676345121115
-36.801112656467325 -3.1488784272273325 0.05991849027589129
-36.30041724617524 -3.109638998138559 0.059119823244284816
-35.79972183588316 -3.070162948232678 0.058326711420629326
-35.29902642559111 -3.0304498466250678 0.05753919097525555
-34.79833101529903 -2.990499262431106 0.0567572980784911
-34.297635605006946 -2.9503107647661846 0.05598106890066494
-33.79694019471489 -2.909883922745699 0.055210539612106466
-33.29624478442281 -2.869218305485017 0.05444574638314463
-32.79554937413073 -2.8283134820995315 0.053686725384107944
-32.294853963838676 -2.787169021704642 0.05293351278532536
-31.794158553546595 -2.745784493415714 0.05218614475712584
-31.293463143254513 -2.7041594663481394 0.05144465746983744
-30.79276773296246 -2.662293509617321 0.05070908709379045
-30.29207232267038 -2.6201861923386183 0.04997946979931382
-29.791376912378297 -2.5778370836274327 0.04925584175673474
-29.290681502086244 -2.5352457525991614 0.04853823913638393
-28.789986091794162 -2.4924117683691627 0.047826698108589014
-28.28929068150208 -2.4493347000528374 0.04712125484367939
-27.788595271210028 -2.4060141167655793 0.046421945511984905
-27.287899860917946 -2.3624495876227627 0.045728806283831844
-26.787204450625865 -2.3186406817397707 0.045041873329551826
-26.28650904033381 -2.2745869682320077 0.04436118281947292
-25.78581363004173 -2.2302880162148373 0.04368677092392363
-25.28511821974965 -2.1857433948036533 0.043018673813232475
-24.784422809457595 -2.14095267311386 0.042356927657729734
-24.283727399165514 -2.095915420260816 0.041701568627742144
-23.783031988873432 -2.0506312053599167 0.041052632893601324
-23.28233657858135 -2.005099597526561 0.040410156625634006
-22.781641168289298 -1.9593201658761201 0.03977417599417003
-22.280945757997216 -1.9132924795239783 0.039144727169537916
-21.780250347705135 -1.8670161075855403 0.03852184632206661
-21.27955493741308 -1.8204906191761714 0.03790556962208551
-20.778859527121 -1.7737155834112637 0.037295933239923126
-20.27816411682892 -1.7266905694062091 0.03669297334590753
-19.777468706536865 -1.6794151462763927 0.03609672611036989
-19.276773296244784 -1.6318888831371885 0.03550722770363694
-18.776077885952702 -1.5841113491040029 0.0349245142960372
-18.27538247566065 -1.5360821132922065 0.034348622057902276
-17.774687065368568 -1.4878007448171842 0.03377958715955935
-17.273991655076486 -1.4392668127943316 0.03321744577133738
-16.773296244784433 -1.3904798863390335 0.032662234063563986
-16.27260083449235 -1.3414395345666679 0.032113988206570784
-15.77190542420027 -1.2921453265926284 0.0315727443706854
-15.271210013908217 -1.2425968315323 0.031038538726235007
-14.770514603616135 -1.1927936185010657 0.03051140744355034
-14.269819193324054 -1.1427352566143105 0.02999138669296124
-13.769123783032 -1.0924213149874318 0.02947851264479444
-13.268428372739919 -1.0418513627357948 0.02897282146938067
-12.767732962447838 -0.9910249689748005 0.02847434933704711
-12.267037552155784 -0.9399417028198409 0.027983132418124043
-11.766342141863703 -0.8886011333862849 0.027499206882939095
-11.265646731571621 -0.8370028297895298 0.027022608901822995
-10.764951321279568 -0.7851463611449605 0.02655337464510292
-10.264255910987487 -0.7330312965679531 0.02609154028310827
-9.763560500695405 -0.6806572051739066 0.025637141986167997
-9.262865090403352 -0.628023656078206 0.0251902159246115
