Polar data for 2 at Re = 54285.71428571429
Alpha (deg) Cl Cd
-180.0 -4.454545514764021 0.6078204902949563
-179.49930458970792 -4.469804035668531 0.6067329062385033
-178.99860917941587 -4.484981939440102 0.6056366769557396
-178.49791376912378 -4.50007857336521 0.6045318493140831
-177.9972183588317 -4.5150932847303356 0.603418470180951
-177.49652294853965 -4.530025420821957 0.6022965864237609
-176.99582753824757 -4.544874328926555 0.6011662449099305
-176.4951321279555 -4.559639356330605 0.6000274925068775
-175.99443671766343 -4.574319850320587 0.5988803760820188
-175.49374130737135 -4.588915158182983 0.5977249425027725
-174.99304589707927 -4.603424627204269 0.5965612386365565
-174.49235048678722 -4.617847604670924 0.5953893113507874
-173.99165507649514 -4.632183437869426 0.5942092075128836
-173.49095966620305 -4.646431474086259 0.5930209739902618
-172.990264255911 -4.660591060607897 0.5918246576503404
-172.48956884561892 -4.674661544720818 0.5906203053605367
-171.98887343532684 -4.688642273711504 0.589407963988268
-171.48817802503476 -4.702532594866433 0.5881876804009524
-170.9874826147427 -4.716331855472081 0.5869595014660068
-170.48678720445062 -4.730039402814934 0.5857234740508489
-169.98609179415854 -4.743654584181464 0.5844796450228967
-169.4853963838665 -4.757176746858153 0.5832280612495674
-168.9847009735744 -4.77060523813148 0.5819687695982784
-168.48400556328232 -4.783939405287922 0.5807018169364476
-167.98331015299027 -4.7971785956139605 0.5794272501314924
-167.4826147426982 -4.8103221563960705 0.5781451160508307
-166.9819193324061 -4.823369434920735 0.5768554615618794
-166.48122392211405 -4.836319778474432 0.5755583335320565
-165.98052851182197 -4.849172534343636 0.5742537788287799
-165.4798331015299 -4.861927049814835 0.5729418443194662
-164.97913769123784 -4.8745826721745 0.5716225768715334
-164.47844228094576 -4.887138748709112 0.5702960233523996
-163.97774687065368 -4.8995946267051504 0.5689622306294814
-163.47705146036162 -4.911949653449095 0.5676212455701969
-162.97635605006954 -4.924203176227421 0.5662731150419639
-162.47566063977746 -4.936354542326613 0.5649178859121996
-161.9749652294854 -4.948403099033143 0.5635556050483216
-161.47426981919332 -4.960348193633499 0.5621863193177471
-160.97357440890124 -4.972189173414151 0.5608100755878945
-160.4728789986092 -4.983925385661582 0.5594269207261807
-159.9721835883171 -4.995556177662272 0.558036901600023
-159.47148817802503 -5.007080896702697 0.5566400650768403
-158.97079276773297 -5.018498890069334 0.5552364580240486
-158.4700973574409 -5.029809505048669 0.5538261273090667
-157.9694019471488 -5.041012088927177 0.552409119799311
-157.46870653685676 -5.052105988991338 0.5509854823621997
-156.96801112656468 -5.063090552527628 0.5495552618651499
-156.4673157162726 -5.073965126822527 0.5481185051755803
-155.96662030598054 -5.0847290591625125 0.5466752591609075
-155.46592489568846 -5.095381696834069 0.5452255706885493
-154.96522948539638 -5.105922387123672 0.5437694866259225
-154.46453407510432 -5.116350477317799 0.5423070538404459
-153.96383866481224 -5.12666531470293 0.5408383191995364
-153.46314325452016 -5.136866246565544 0.5393633295706125
-152.9624478442281 -5.1469526201921205 0.5378821318210901
-152.46175243393603 -5.156923782869137 0.5363947728183877
-151.96105702364395 -5.166779081883075 0.5349012994299222
-151.4603616133519 -5.1765178645204095 0.533401758523112
-150.9596662030598 -5.1861394780676235 0.5318961969653749
-150.45897079276773 -5.195643269811191 0.530384661624128
-149.95827538247568 -5.205028587037596 0.528867199366788
-149.4575799721836 -5.214294777033317 0.5273438570607732
-148.9568845618915 -5.223441187084828 0.5258146815735015
-148.45618915159943 -5.232467164478611 0.5242797197723906
-147.95549374130738 -5.241372056501147 0.5227390185248569
-147.4547983310153 -5.250155210438908 0.5211926246983197
-146.95410292072324 -5.258815973578383 0.5196405851601947
-146.45340751043116 -5.267353693206043 0.5180829467778999
-145.95271210013908 -5.275767716608372 0.5165197564188532
-145.452016689847 -5.284057391071842 0.5149510609504727
-144.95132127955495 -5.2922220638829405 0.5133769072401756
-144.45062586926286 -5.300261082328141 0.5117973421553789
-143.94993045897078 -5.308173793693922 0.5102124125635003
-143.44923504867873 -5.315959545266768 0.5086221653319579
-142.94853963838665 -5.323617684333147 0.5070266473281694
-142.44784422809457 -5.331147558179548 0.505425905419551
-141.9471488178025 -5.338548514092447 0.5038199864735217
-141.44645340751043 -5.345819899358324 0.5022089373574986
-140.94575799721835 -5.352961061263656 0.5005928049388989
-140.44506258692627 -5.35997134709492 0.4989716360851407
-139.94436717663422 -5.3668501041386 0.49734547766364134
-139.44367176634213 -5.373596679681168 0.4957143765418178
-138.94297635605005 -5.380210421009108 0.494078379587089
-138.442280945758 -5.386690675408902 0.49243753366687104
-137.94158553546592 -5.39303679016702 0.49079188564858256
-137.44089012517384 -5.399248112569949 0.48914148239963995
-136.94019471488178 -5.4053239899041605 0.48748637078746204
-136.4394993045897 -5.411263769456141 0.4858265976794661
-135.93880389429762 -5.417066798512366 0.4841622099430688
-135.43810848400557 -5.422732424359313 0.48249325444568847
-134.9374130737135 -5.428259994283462 0.48081977805474285
-134.4367176634214 -5.433648855571294 0.47914182763764834
-133.93602225312935 -5.4388983555092825 0.47745945006182355
-133.43532684283727 -5.444007841383913 0.47577269219468665
-132.9346314325452 -5.448976660481658 0.4740816009036536
-132.43393602225314 -5.453804160089002 0.47238622305614275
-131.93324061196105 -5.458489687492422 0.470686605519571
-131.43254520166897 -5.463032589978397 0.4689827951613573
-130.93184979137692 -5.467432214833402 0.4672748388489186
-130.43115438108484 -5.4716879093439195 0.4655627834496717
-129.93045897079276 -5.47579902079643 0.463846675831035
-129.4297635605007 -5.479764896477411 0.46212656286042597
-128.92906815020862 -5.483584883673336 0.460402491405261
-128.42837273991654 -5.487258329670694 0.4586745083329601
-127.92767732962449 -5.490784581755956 0.4569426605109387
-127.4269819193324 -5.494162987215603 0.45520699480661475
-126.92628650904032 -5.497392893336121 0.4534675580874056
-126.42559109874827 -5.500473647403974 0.4517243972207302
-125.92489568845619 -5.503404596705654 0.4499775590740046
-125.42420027816411 -5.506185088527632 0.4482270905146476
-124.92350486787205 -5.508814470156395 0.44647303841007535
-124.42280945757997 -5.511292088878411 0.4447154496277058
-123.92211404728789 -5.513617291980165 0.44295437103495827
-123.42141863699584 -5.5157894267481415 0.44118984949924756
-122.92072322670376 -5.517807840468809 0.43942193188799383
-122.42002781641168 -5.519671880428653 0.4376506650686124
-121.91933240611961 -5.5213808939141495 0.4358760959085225
-121.41863699582754 -5.522934228211777 0.4340982712751399
-120.91794158553546 -5.524331230608018 0.4323172380358843
-120.41724617524339 -5.5255712483893475 0.4305330430581714
-119.91655076495132 -5.526653628842247 0.4287457332094201
-119.41585535465924 -5.527577719253194 0.426955355357047
-118.91515994436718 -5.528342866908669 0.42516195636847043
-118.41446453407511 -5.528948419095148 0.42336558311110706
-117.91376912378303 -5.52939372309911 0.4215662824523757
-117.41307371349096 -5.529678126207039 0.419764101259693
-116.91237830319889 -5.529800975705407 0.4179590864004764
-116.41168289290681 -5.529761618880698 0.41615128474214347
-115.91098748261474 -5.529559403019389 0.41434074315211256
-115.41029207232268 -5.529193675407957 0.4125275084978012
-114.9095966620306 -5.5286637833328856 0.4107116276466255
-114.40890125173853 -5.527969074080651 0.40889314746600436
-113.90820584144646 -5.527108894937733 0.4070721148233548
-113.40751043115438 -5.526082593190608 0.4052485765860948
-112.90681502086231 -5.524889516125756 0.4034225796216414
-112.40611961057024 -5.523529011029654 0.40159417079741255
-111.90542420027816 -5.5220004251887875 0.39976339698082486
-111.4047287899861 -5.52030310588963 0.39793030503929805
-110.90403337969401 -5.518436400418659 0.3960949418402474
-110.40333796940195 -5.516399656062361 0.39425735425109176
-109.90264255910988 -5.514192220107207 0.39241758913924774
-109.4019471488178 -5.511813439839678 0.3905756933721337
-108.90125173852573 -5.509262662546252 0.3887317138171672
-108.40055632823366 -5.506539235513412 0.3868856973417657
-107.89986091794158 -5.503642506027636 0.38503769081334627
-107.39916550764951 -5.5005718213754005 0.3831877410993273
-106.89847009735745 -5.497326528843185 0.3813358950671254
-106.39777468706536 -5.49390597571747 0.3794821995841581
-105.8970792767733 -5.490309509284729 0.37762670151784417
-105.39638386648123 -5.486536476831446 0.3757694477356003
-104.89568845618915 -5.482586225644102 0.3739104851048439
-104.39499304589708 -5.478458103009167 0.37204986049299305
-103.89429763560501 -5.4741514562131295 0.37018762076746514
-103.39360222531293 -5.469665632542463 0.3683238127956773
-102.89290681502086 -5.46499997928365 0.3664584834450474
-102.3922114047288 -5.460153843723166 0.36459167958299343
-101.89151599443672 -5.455126573147495 0.362723448076932
-101.39082058414465 -5.449917514843103 0.36085383579428154
-100.89012517385257 -5.4445260160964875 0.3589828896024595
-100.3894297635605 -5.438951424194112 0.35711065636888295
-99.88873435326843 -5.433193086422461 0.35523718296096984
-99.38803894297635 -5.427250350068017 0.35336251624613724
-98.88734353268428 -5.421122562417255 0.3514867030918031
-98.38664812239222 -5.414809070756654 0.3496097903653853
-97.88595271210013 -5.408309222372692 0.34773182493430055
-97.38525730180807 -5.401622364551847 0.3458528536659681
-96.884561891516 -5.394747844580604 0.34397292342780317
-96.38386648122392 -5.387685009745439 0.34209208108722466
-95.88317107093185 -5.380433207332828 0.34021037351165007
-95.38247566063978 -5.372991784629246 0.3383278475684969
-94.8817802503477 -5.365360088921187 0.3364445501251817
-94.38108484005564 -5.357537467495119 0.33456052804912384
-93.88038942976357 -5.349523267637521 0.3326758282077399
-93.37969401947149 -5.3413168366348724 0.33079049746844646
-92.87899860917942 -5.332917521773655 0.3289045826986633
-92.37830319888734 -5.324324670340345 0.3270181307658061
-91.87760778859527 -5.315537629621421 0.32513118853729417
-91.3769123783032 -5.30655574690336 0.3232438028805432
-90.87621696801112 -5.297378369472646 0.32135602066297164
-90.37552155771905 -5.288004844615757 0.3194678887519974
-89.87482614742699 -5.27843451961917 0.3175794540150375
-89.3741307371349 -5.268666741769371 0.3156907633195086
-88.87343532684284 -5.258700858352823 0.3138018635328296
-88.37273991655077 -5.248536216656016 0.31191280152241785
-87.87204450625869 -5.238172163965426 0.3100236241556914
-87.37134909596662 -5.227608047567543 0.3081343783000655
-86.87065368567455 -5.216843214748824 0.3062451108229617
-86.36995827538247 -5.205877012795771 0.30435586859179387
-85.8692628650904 -5.194708788994842 0.3024666984739809
-85.36856745479834 -5.183337890632531 0.3005776473369416
-84.86787204450626 -5.171763664995309 0.2986887620480908
-84.36717663421419 -5.1599854593696595 0.2968000894748474
-83.86648122392211 -5.148002621042052 0.2949116764846301
-83.36578581363004 -5.135814497298983 0.29302356994485523
-82.86509040333797 -5.123420435426919 0.29113581672294064
-82.36439499304589 -5.110819782712333 0.2892484636863043
-81.86369958275382 -5.098011886441721 0.2873615577023628
-81.36300417246176 -5.084996093901549 0.2854751456385337
-80.86230876216968 -5.0717717523783055 0.2835892743622349
-80.36161335187761 -5.058338209158455 0.2817039907408848
-79.86091794158554 -5.044694811528485 0.2798193416419005
-79.36022253129346 -5.030840906774883 0.27793537393269896
-78.85952712100139 -5.016775842184113 0.27605213448069865
-78.35883171070932 -5.002498965042662 0.27416967015331484
-77.85813630041724 -4.988009622637012 0.27228802781796857
-77.35744089012518 -4.973307162253626 0.2704072543420747
-76.85674547983311 -4.958390931179005 0.2685273965930516
-76.35605006954103 -4.943260276699609 0.2666485014383172
-75.85535465924896 -4.927914546101929 0.26477061574528904
-75.35465924895689 -4.912353086672434 0.2628937863813846
-74.85396383866481 -4.896575245697618 0.2610180602140214
-74.35326842837274 -4.880580370463941 0.2591434841106178
-73.85257301808066 -4.864367808257896 0.25727010493858826
-73.3518776077886 -4.847936906365948 0.2553979695653533
-72.85118219749653 -4.8312870120746005 0.2535271248583296
-72.35048678720445 -4.814417472670308 0.25165761768493555
-71.84979137691238 -4.797327635439563 0.24978949491258773
-71.34909596662031 -4.7800168476688345 0.2479228034087041
-70.84840055632823 -4.762484456644605 0.24605759004070127
-70.34770514603616 -4.744729809653356 0.24419390167599853
-69.8470097357441 -4.726752253981576 0.24233178518201115
-69.34631432545201 -4.708551136915723 0.24047128742615886
-68.84561891515995 -4.690125805742287 0.23861245527585828
-68.34492350486788 -4.671475607747748 0.2367553355985278
-67.8442280945758 -4.652599890218583 0.23489997526158357
-67.34353268428373 -4.633498000441266 0.23304642113244356
-66.84283727399166 -4.614169285702291 0.2311947200785257
-66.34214186369958 -4.594613093288116 0.22934491896724796
-65.84144645340751 -4.574828770485236 0.22749706466602648
-65.34075104311543 -4.554815664580128 0.22565120404227967
-64.84005563282336 -4.5345731228592605 0.22380738396342592
-64.3393602225313 -4.514100492609124 0.22196565129688184
-63.838664812239216 -4.4933971211161925 0.22012605291006537
-63.33796940194715 -4.472462355666935 0.21828863567039314
-62.83727399165508 -4.451295543547856 0.21645344644528308
-62.336578581363 -4.429896032045411 0.21462053210215448
-61.83588317107093 -4.408263168446089 0.21278993950842173
-61.335187760778865 -4.386396300036362 0.21096171553150544
-60.834492350486784 -4.364294774102716 0.2091359070388218
-60.333796940194716 -4.341957937931625 0.20731256089778782
-59.83310152990265 -4.319385138809576 0.20549172397582238
-59.33240611961057 -4.2965757240230396 0.20367344314034208
-58.8317107093185 -4.2735290408584925 0.20185776525876398
-58.33101529902643 -4.250244436602431 0.20004473719850602
-57.83031988873435 -4.226721258541309 0.19823440582698704
-57.329624478442284 -4.20295885396162 0.19642681801162365
-56.82892906815022 -4.178956570149846 0.19462202061983336
-56.328233657858135 -4.154713754392456 0.1928200605190341
-55.82753824756607 -4.130229753975929 0.19102098457664252
-55.326842837273986 -4.1055039161867555 0.18922483966007742
-54.82614742698192 -4.0805355883114025 0.18743167263675542
-54.32545201668985 -4.055324117636361 0.18564153037409403
-53.82475660639777 -4.029868851448098 0.1838544597395112
-53.3240611961057 -4.0041691370331005 0.18207050760042487
-52.823365785813635 -3.9782243216778372 0.1802897208242512
-52.322670375521554 -3.9520337526687994 0.1785121462784095
-51.82197496522949 -3.9255967772924576 0.17673783083031724
-51.321279554937405 -3.8989127428352894 0.17496682134738928
-50.82058414464535 -3.8719809965837833 0.17319916469704666
-50.31988873435327 -3.844800885824413 0.17143490774670556
-49.81919332406119 -3.8173717578436497 0.16967409736378258
-49.318497913769136 -3.7896929599279847 0.16791678041569613
-48.817802503477054 -3.7617638393638924 0.1661630037698646
-48.31710709318497 -3.733583743437853 0.16441281429370325
-47.81641168289292 -3.7051520194363396 0.16266625885463226
-47.31571627260084 -3.6764680146458373 0.1609233843200678
-46.81502086230876 -3.64753107635282 0.1591842375574274
-46.3143254520167 -3.618340551843769 0.1574488654341294
-45.81363004172462 -3.588895788405165 0.15571731481759
-45.31293463143254 -3.5591961333234794 0.15398963257522758
-44.81223922114049 -3.529240933885207 0.1522658655744601
-44.311543810848406 -3.4990295373768117 0.15054606068270504
-43.810848400556324 -3.4685612910847734 0.14883026476737904
-43.31015299026427 -3.4378355422955797 0.14711852469590048
-42.80945757997219 -3.4068516382957084 0.14541088733568552
-42.30876216968011 -3.3756089263716262 0.14370739955415435
-41.808066759388026 -3.3441067538098217 0.14200810821872223
-41.30737134909597 -3.312344467896783 0.14031306019680756
-40.80667593880389 -3.2803214159189666 0.13862230235582784
-40.30598052851181 -3.248036945162868 0.13693588156320147
-39.80528511821976 -3.215490402914961 0.13525384468634505
-39.304589707927676 -3.1826811364617225 0.13357623859267564
-38.803894297635594 -3.1496084930896364 0.1319031101496112
-38.30319888734354 -3.116271820085184 0.130234506224571
-37.80250347705146 -3.0826704647348286 0.12857047368496854
-37.30180806675938 -3.048803774325062 0.12691105939822622
-36.801112656467325 -3.0146710961423695 0.12525631023175843
-36.30041724617524 -2.9802717774732104 0.12360627305298354
-35.79972183588316 -2.945605165604084 0.12196099472931864
-35.29902642559111 -2.9106706078214604 0.12032052212818344
-34.79833101529903 -2.875467451411807 0.11868490211699233
-34.297635605006946 -2.839995043661623 0.11705418156316459
-33.79694019471489 -2.804252731857381 0.11542840733411817
-33.29624478442281 -2.7682398632855474 0.11380762629727013
-32.79554937413073 -2.7319557852326106 0.11219188532003842
-32.294853963838676 -2.695399844985059 0.1105812312698392
-31.794158553546595 -2.6585713898293486 0.10897571101409086
-31.293463143254513 -2.6214697670519786 0.1073753714202109
-30.79276773296246 -2.584094323939423 0.10578025935561818
-30.29207232267038 -2.5464444077781527 0.1041904216877284
-29.791376912378297 -2.5085193658546556 0.1026059052839595
-29.290681502086244 -2.4703185454554086 0.10102675701172946
-28.789986091794162 -2.4318412938668885 0.09945302373845576
-28.28929068150208 -2.393086958375573 0.09788475233155679
-27.788595271210028 -2.3540548862679396 0.09632198965844961
-27.287899860917946 -2.314744424830484 0.09476478258654862
-26.787204450625865 -2.275154921349662 0.09321317798327576
-26.28650904033381 -2.2352857231119554 0.09166722271604898
-25.78581363004173 -2.195136177403856 0.09012696365228222
-25.28511821974965 -2.1547056315118374 0.08859244765939388
-24.784422809457595 -2.113993432722384 0.08706372160480368
-24.283727399165514 -2.072998928321965 0.08554083235592645
-23.783031988873432 -2.0317214655970552 0.08402382678018148
-23.28233657858135 -1.9901603918341528 0.08251275174498583
-22.781641168289298 -1.9483150543197112 0.08100765411775789
-22.280945757997216 -1.906184800340229 0.0795085807659147
-21.780250347705135 -1.8637689771821877 0.0780155785568729
-21.27955493741308 -1.8210669321320505 0.0765286943580513
-20.778859527121 -1.7780780124762987 0.0750479750368661
-20.27816411682892 -1.734801565501417 0.07357346746073655
-19.777468706536865 -1.691236938493894 0.07210521849707795
-19.276773296244784 -1.6473834787401855 0.07064327501331179
-18.776077885952702 -1.6032405335267945 0.06918768387685025
-18.27538247566065 -1.5588074501401763 0.06773849195511526
-17.774687065368568 -1.5140835758668219 0.06629574611552257
-17.273991655076486 -1.4690682579932195 0.06485949322548966
-16.773296244784433 -1.4237608438058327 0.06342978015243537
-16.27260083449235 -1.3781606805911426 0.062006653763774996
-15.77190542420027 -1.332267115635634 0.060590160926929135
-15.271210013908217 -1.2860794962257882 0.05918034850931263
-14.770514603616135 -1.2395971696480685 0.05777726337834298
-14.269819193324054 -1.1928194831889705 0.05638095240144035
-13.769123783032 -1.1457457841349712 0.05499146244602003
-13.268428372739919 -1.0983754197725462 0.053608840379499964
-12.767732962447838 -1.0507077373881637 0.052233133069298984
-12.267037552155784 -1.0027420842683152 0.05086438738283326
-11.766342141863703 -0.954477807699482 0.0495026501875203
-11.265646731571621 -0.9059142549681416 0.04814796835077849
-10.764951321279568 -0.8570507733607611 0.04680038874002533
-10.264255910987487 -0.8078867101638321 0.045459958222677885
-9.763560500695405 -0.7584214126638222 0.04412672366615321
-9.262865090403352 -0.7086542281472223 0.04280073193786969
-8.76216968011127 -0.658584503900508 0.041482029905245285
