Polar data for a18sm at Re = 1451034.4827586208
Alpha (deg) Cl Cd
-180.0 -11.080595758925249 2.6638046524144
-179.49930458970792 -11.084201576336763 2.658406102921871
-178.99860917941587 -11.087599521598108 2.6529595195159854
-178.49791376912378 -11.090789648084794 2.6474652053001697
-177.9972183588317 -11.093772009172344 2.641923463377855
-177.49652294853965 -11.096546658236282 2.636334596852469
-176.99582753824757 -11.099113648652121 2.630698908827433
-176.4951321279555 -11.101473033795383 2.625016702406183
-175.99443671766343 -11.103624867041589 2.619288280692142
-175.49374130737135 -11.105569201766254 2.6135139467887423
-174.99304589707927 -11.107306091344903 2.6076940037994087
-174.49235048678722 -11.108835589153045 2.6018287548275683
-173.99165507649514 -11.110157748566209 2.595918502976653
-173.49095966620305 -11.111272622959913 2.589963551350086
-172.990264255911 -11.112180265709672 2.5839642030512944
-172.48956884561892 -11.112880730191009 2.5779207611837136
-171.98887343532684 -11.113374069779443 2.571833528850765
-171.48817802503476 -11.113660337850487 2.5657028091558796
-170.9874826147427 -11.113739587779666 2.559528905202485
-170.48678720445062 -11.1136118729425 2.5533121200940037
-169.98609179415854 -11.11327724671451 2.5470527569338723
-169.4853963838665 -11.112735762471207 2.540751118825511
-168.9847009735744 -11.111987473588119 2.5344075088723534
-168.48400556328232 -11.111032433440759 2.528022230177825
-167.98331015299027 -11.109870695404648 2.521595585845352
-167.4826147426982 -11.108502312855308 2.5151278789783666
-166.9819193324061 -11.106927339168255 2.5086194126802925
-166.48122392211405 -11.105145827719014 2.50207049005456
-165.98052851182197 -11.103157831883095 2.495481414204599
-165.4798331015299 -11.100963405036023 2.488852488233831
-164.97913769123784 -11.098562600553311 2.482184015245687
-164.47844228094576 -11.095955471810491 2.4754762983435987
-163.97774687065368 -11.093142072183074 2.4687296406309858
-163.47705146036162 -11.090122455046568 2.461944345211284
-162.97635605006954 -11.086896673776518 2.4551207151879217
-162.47566063977746 -11.083464781748422 2.448259053664319
-161.9749652294854 -11.079826832337812 2.4413596637439112
-161.47426981919332 -11.075982878920197 2.43442284853012
-160.97357440890124 -11.071932974871103 2.4274489111263793
-160.4728789986092 -11.06767717356605 2.420438154636114
-159.9721835883171 -11.063215528380542 2.4133908821627474
-159.47148817802503 -11.058548092690128 2.406307396809719
-158.97079276773297 -11.053674919870303 2.3991880016804497
-158.4700973574409 -11.048596063296586 2.392032999878363
-157.9694019471488 -11.043311576344518 2.3848426945068932
-157.46870653685676 -11.037821512389584 2.3776173886694667
-156.96801112656468 -11.032125924807339 2.370357385469512
-156.4673157162726 -11.026224866973276 2.3630629880104546
-155.96662030598054 -11.020118392262937 2.355734499395726
-155.46592489568846 -11.013806554051822 2.34837222272875
-154.96522948539638 -11.00728940571545 2.3409764611129567
-154.46453407510432 -11.000567000629356 2.333547517651773
-153.96383866481224 -10.993639392169044 2.326085695448629
-153.46314325452016 -10.98650663371005 2.3185912976069516
-152.9624478442281 -10.979168778627873 2.3110646272301696
-152.46175243393603 -10.971625880298038 2.303505987421708
-151.96105702364395 -10.963877992096073 2.2959156812849932
-151.4603616133519 -10.955925167397496 2.2882940119234596
-150.9596662030598 -10.947767459577825 2.2806412824405338
-150.45897079276773 -10.93940492201257 2.272957795939637
-149.95827538247568 -10.930837608077265 2.2652438555242056
-149.4575799721836 -10.922065571147417 2.2574997642976586
-148.9568845618915 -10.913088864598542 2.249725825363432
-148.45618915159943 -10.903907541806177 2.2419223418249543
-147.95549374130738 -10.894521656145827 2.2340896167856417
-147.4547983310153 -10.884931260993024 2.226227953348937
-146.95410292072324 -10.875136409723272 2.2183376546182596
-146.45340751043116 -10.865137155712091 2.2104190236970367
-145.95271210013908 -10.854933552335009 2.2024723636886967
-145.452016689847 -10.844525652967548 2.1944979776966718
-144.95132127955495 -10.83391351098522 2.1864961688243887
-144.45062586926286 -10.82309717976354 2.1784672401752707
-143.94993045897078 -10.812076712678039 2.17041149485275
-143.44923504867873 -10.80085216310422 2.162329235960255
-142.94853963838665 -10.78942358441763 2.1542207666012128
-142.44784422809457 -10.777791029993757 2.146086389879048
-141.9471488178025 -10.76595455320814 2.1379264088971914
-141.44645340751043 -10.753914207436292 2.1297411267590696
-140.94575799721835 -10.741670046053727 2.121530846568113
-140.44506258692627 -10.729222122435978 2.113295871427748
-139.94436717663422 -10.716570489958546 2.1050365044414003
-139.44367176634213 -10.703715201996971 2.0967530487125035
-138.94297635605005 -10.690656311926752 2.0884458073444825
-138.442280945758 -10.677393873123421 2.080115083440759
-137.94158553546592 -10.663927938962502 2.071761180104772
-137.44089012517384 -10.650258562819491 2.0633844004399413
-136.94019471488178 -10.636385798069934 2.054985047549699
-136.4394993045897 -10.622309698089332 2.0465634245374704
-135.93880389429762 -10.608030316253217 2.03811983450668
-135.43810848400557 -10.593547705937102 2.029654580560766
-134.9374130737135 -10.578861920516502 2.021167965803151
-134.4367176634214 -10.56397301336694 2.012660293337253
-133.93602225312935 -10.548881037863936 2.0041318662665204
-133.43532684283727 -10.533586047383015 1.9955829876943638
-132.9346314325452 -10.518088095299678 1.9870139607242208
-132.43393602225314 -10.502387234989467 1.978425088459511
-131.93324061196105 -10.486483519827893 1.9698166740036682
-131.43254520166897 -10.47037700319046 1.9611890204601177
-130.93184979137692 -10.45406773845271 1.952542430932295
-130.43115438108484 -10.437555778990149 1.9438772085236162
-129.93045897079276 -10.420841178178307 1.935193656337519
-129.4297635605007 -10.403923989392691 1.9264920774774228
-128.92906815020862 -10.38680426600882 1.9177727750467581
-128.42837273991654 -10.369482061402227 1.9090360521489607
-127.92767732962449 -10.351957428948413 1.9002822118874483
-127.4269819193324 -10.334230422022916 1.891511557365655
-126.92628650904032 -10.316301094001233 1.8827243916870038
-126.42559109874827 -10.298169498258911 1.8739210179549253
-125.92489568845619 -10.279835688171453 1.8651017392728515
-125.42420027816411 -10.261299717114372 1.8562668587442004
-124.92350486787205 -10.242561638463197 1.8474166794724058
-124.42280945757997 -10.223621505593446 1.8385515045608964
-123.92211404728789 -10.204479371880645 1.8296716371131025
-123.42141863699584 -10.185135290700302 1.8207773802324438
-122.92072322670376 -10.165589315427933 1.8118690370223596
-122.42002781641168 -10.145841499439069 1.8029469105862659
-121.91933240611961 -10.12589189610922 1.7940113040275967
-121.41863699582754 -10.10574055881392 1.7850625204497805
-120.91794158553546 -10.085387540928668 1.7761008629562407
-120.41724617524339 -10.064832895828996 1.767126634650411
-119.91655076495132 -10.044076676890427 1.758140138635715
-119.41585535465924 -10.023118937488462 1.7491416780155808
-118.91515994436718 -10.001959730998642 1.7401315558934427
-118.41446453407511 -9.980599110796465 1.7311100753727149
-117.91376912378303 -9.959037130257475 1.722077539556842
-117.41307371349096 -9.937273842757175 1.71303425154924
-116.91237830319889 -9.915309301671076 1.703980514453343
-116.41168289290681 -9.893143560374718 1.6949166313725743
-115.91098748261474 -9.870776672243604 1.6858429054103676
-115.41029207232268 -9.848208690653266 1.6767596396701445
-114.9095966620306 -9.825439668979211 1.6676671372553336
-114.40890125173853 -9.802469660596966 1.6585657012693704
-113.90820584144646 -9.779298718882053 1.649455634815673
-113.40751043115438 -9.755926897209982 1.6403372409976718
-112.90681502086231 -9.732354248956273 1.6312108229187987
-112.40611961057024 -9.708580827496451 1.622076683682479
-111.90542420027816 -9.684606686206038 1.6129351263921392
-111.4047287899861 -9.66043187846055 1.603786454151217
-110.90403337969401 -9.636056457635497 1.5946309700631232
-110.40333796940195 -9.611480477106404 1.585468977231295
-109.90264255910988 -9.5867039902488 1.576300778759165
-109.4019471488178 -9.561727050438193 1.5671266777501525
-108.90125173852573 -9.53654971105011 1.5579469773076915
-108.40055632823366 -9.511172025460066 1.548761980535207
-107.89986091794158 -9.485594047043566 1.5395719905361225
-107.39916550764951 -9.459815829176161 1.530377310413877
-106.89847009735745 -9.43383742523335 1.52117824327189
-106.39777468706536 -9.407658888590642 1.5119750922135888
-105.8970792767733 -9.381280272623584 1.5027681603424052
-105.39638386648123 -9.354701630707673 1.4935577507617679
-104.89568845618915 -9.327923016218435 1.4843441665750983
-104.39499304589708 -9.300944482531385 1.475127710885832
-103.89429763560501 -9.273766083022057 1.4659086867973978
-103.39360222531293 -9.246387871065952 1.4566873974132135
-102.89290681502086 -9.218809900038604 1.4474641458367112
-102.3922114047288 -9.191032223315524 1.4382392351713267
-101.89151599443672 -9.163054894272225 1.4290129685204742
-101.39082058414465 -9.13487796628425 1.4197856489875966
-100.89012517385257 -9.106501492727087 1.41055757967611
-100.3894297635605 -9.07792552697628 1.4013290636894484
-99.88873435326843 -9.04915012240734 1.392100404131035
-99.38803894297635 -9.020175332395777 1.3828719041043018
-98.88734353268428 -8.991001210317126 1.3736438667126758
-98.38664812239222 -8.961627809546894 1.3644165950595872
-97.88595271210013 -8.932055183460605 1.3551903922484594
-97.38525730180807 -8.902283385433776 1.3459655613827262
-96.884561891516 -8.872312468841937 1.3367424055658073
-96.38386648122392 -8.842142487060588 1.327521227901133
-95.88317107093185 -8.811773493465271 1.3183023314921356
-95.38247566063978 -8.781205541431486 1.30908601944224
-94.8817802503477 -8.750438684334753 1.2998725948548713
-94.38108484005564 -8.719472975550612 1.290662360833465
-93.88038942976357 -8.688308468454558 1.2814556204814447
-93.37969401947149 -8.65694521642212 1.2722526769022298
-92.87899860917942 -8.625383272828824 1.2630538331992667
-92.37830319888734 -8.593622691050165 1.2538593924759662
-91.87760778859527 -8.5616635244617 1.2446696578357677
-91.3769123783032 -8.529505826438914 1.2354849323820942
-90.87621696801112 -8.49714965035735 1.2263055192183745
-90.37552155771905 -8.464595049592514 1.2171317214480335
-89.87482614742699 -8.431842077519924 1.2079638421744998
-89.3741307371349 -8.398890787515114 1.1988021845012056
-88.87343532684284 -8.365741232953582 1.1896470515315758
-88.37273991655077 -8.332393467210863 1.1804987463690355
-87.87204450625869 -8.298847543662482 1.1713575721170257
-87.37134909596662 -8.265103515683933 1.1622238318789502
-86.87065368567455 -8.231161436650758 1.153097828758264
-86.36995827538247 -8.197021359938454 1.1439798658583746
-85.8692628650904 -8.162683338922562 1.1348702462827176
-85.36856745479834 -8.128147426978607 1.125769273134725
-84.86787204450626 -8.093413677482083 1.1166772495178168
-84.36717663421419 -8.058482143808519 1.1075944785354248
-83.86648122392211 -8.023352879333444 1.0985212632909778
-83.36578581363004 -7.988025937432368 1.0894579068879024
-82.86509040333797 -7.952501371480813 1.0804047124296274
-82.36439499304589 -7.916779234854295 1.0713619830195813
-81.86369958275382 -7.880859580928337 1.0623300217611873
-81.36300417246176 -7.844742463078453 1.0533091317578775
-80.86230876216968 -7.808427934680167 1.0442996161130735
-80.36161335187761 -7.771916049108994 1.0353017779302163
-79.86091794158554 -7.735206859740464 1.0263159203127254
-79.36022253129346 -7.698300419950079 1.0173423463640243
-78.85952712100139 -7.661196783113382 1.0083813591875503
-78.35883171070932 -7.623896002605867 0.9994332618867231
-77.85813630041724 -7.586398131803064 0.9904983575649767
-77.35744089012518 -7.548703224080504 0.9815769493257415
-76.85674547983311 -7.51081133281368 0.9726693402724317
-76.35605006954103 -7.472722511378136 0.9637758335084884
-75.85535465924896 -7.434436813149374 0.9548967321373348
-75.35465924895689 -7.395954291502931 0.9460323392623943
-74.85396383866481 -7.357274999814307 0.9371829579871113
-74.35326842837274 -7.318398991459033 0.9283488914148984
-73.85257301808066 -7.2793263198126175 0.9195304426491789
-73.3518776077886 -7.240057038250597 0.910727914793401
-72.85118219749653 -7.200591200148479 0.9019416109509665
-72.35048678720445 -7.160928858881781 0.8931718342253271
-71.84979137691238 -7.1210700678260315 0.8844188877198954
-71.34909596662031 -7.081014880356746 0.8756830745381124
-70.84840055632823 -7.040763349849441 0.8669646977833944
-70.34770514603616 -7.000315529679638 0.858264060559175
-69.8470097357441 -6.959671473222847 0.8495814659688742
-69.34631432545201 -6.918831233854596 0.8409172171159293
-68.84561891515995 -6.877794864950409 0.8322716171037671
-68.34492350486788 -6.836562419885801 0.8236449690358144
-67.8442280945758 -6.79513395203628 0.8150375760154981
-67.34353268428373 -6.753509514777391 0.8064497411462449
-66.84283727399166 -6.711689161484627 0.7978817675314852
-66.34214186369958 -6.669672945533526 0.7893339582746423
-65.84144645340751 -6.627460920299597 0.78080661647915
-65.34075104311543 -6.5850531391583536 0.7723000452484315
-64.84005563282336 -6.54244965548532 0.7638145476859174
-64.3393602225313 -6.499650522656025 0.7553504268950343
-63.838664812239216 -6.456655794045978 0.7469079859792126
-63.33796940194715 -6.413465523030708 0.7384875280418827
-62.83727399165508 -6.370079762985724 0.7300893561864571
-62.336578581363 -6.326498567286548 0.721713773516384
-61.83588317107093 -6.282721989308697 0.713361083135076
-61.335187760778865 -6.238750082427706 0.705031588145974
-60.834492350486784 -6.194582900019063 0.6967255916524907
-60.333796940194716 -6.15022049545832 0.6884433967580742
-59.83310152990265 -6.1056629221209695 0.68018530656613
-59.33240611961057 -6.060910233382557 0.6719516241800955
-58.8317107093185 -6.015962482618575 0.6637426527034082
-58.33101529902643 -5.970819723204563 0.6555586952394771
-57.83031988873435 -5.925482008516027 0.6474000548917468
-57.329624478442284 -5.8799493919284975 0.6392670347636406
-56.82892906815022 -5.834221926817476 0.6311599379585816
-56.328233657858135 -5.7882996665585145 0.6230790675800003
-55.82753824756607 -5.742182664527099 0.615024726731327
-55.326842837273986 -5.695870974098766 0.6069972185159885
-54.82614742698192 -5.6493646486490325 0.5989968460374046
-54.32545201668985 -5.602663741553406 0.5910239123990161
-53.82475660639777 -5.5557683061874235 0.5830787207042464
-53.3240611961057 -5.508678395926601 0.5751615740565151
-52.823365785813635 -5.461394064146432 0.5672727755592598
-52.322670375521554 -5.413915364222475 0.5594126283159108
-51.82197496522949 -5.366242349530224 0.5515814354298912
-51.321279554937405 -5.318375073445202 0.5437795000046209
-50.82058414464535 -5.27031358934294 0.5360071251435444
-50.31988873435327 -5.222057950598944 0.5282646139500707
-49.81919332406119 -5.173608210588738 0.520552269527648
-49.318497913769136 -5.124964422687838 0.5128703949796923
-48.817802503477054 -5.076126640271773 0.505219293409627
-48.31710709318497 -5.027094916716037 0.49759926792088593
-47.81641168289292 -4.977869305396189 0.49001062161690656
-47.31571627260084 -4.928449859687716 0.48245365760109793
-46.81502086230876 -4.878836632966148 0.47492867897690105
-46.3143254520167 -4.829029678607006 0.4674359888477392
-45.81363004172462 -4.779029049985808 0.45997589031704267
-45.31293463143254 -4.728834800478082 0.4525486864882383
-44.81223922114049 -4.678446983459323 0.4451546804647458
-44.311543810848406 -4.627865652305075 0.4377941753500133
-43.810848400556324 -4.577090860390839 0.4304674742474498
-43.31015299026427 -4.526122661092145 0.42317488026049277
-42.80945757997219 -4.474961107784515 0.4159166964925548
-42.30876216968011 -4.423606253843459 0.40869322604709113
-41.808066759388026 -4.372058152644498 0.4015047720275037
-41.30737134909597 -4.320316857563163 0.39435163753724056
-40.80667593880389 -4.268382421974954 0.3872341256797144
-40.30598052851181 -4.216254899255403 0.38015253955835904
-39.80528511821976 -4.16393434278003 0.37310718227660844
-39.304589707927676 -4.111420805924353 0.36609835693787873
-38.803894297635594 -4.058714342063879 0.35912636664560027
-38.30319888734354 -4.005815004574152 0.3521915145032105
-37.80250347705146 -3.9527228468306523 0.34529410361412916
-37.30180806675938 -3.8994379222089384 0.33843443708178655
-36.801112656467325 -3.8459602840845184 0.3316128180096095
-36.30041724617524 -3.792289985832901 0.3248295495010213
-35.79972183588316 -3.7384270808296014 0.31808493465945575
-35.29902642559111 -3.684371622450171 0.31137927658834685
-34.79833101529903 -3.63012366407009 0.3047128783911143
-34.297635605006946 -3.575683259064909 0.29808604317118126
-33.79694019471489 -3.5210504608101294 0.2914990740319888
-33.29624478442281 -3.466225322681267 0.2849522740769531
-32.79554937413073 -3.411207898053852 0.27844594640950804
-32.294853963838676 -3.355998240303406 0.2719803941330804
-31.794158553546595 -3.3005964028054313 0.265555920351097
-31.293463143254513 -3.24500243893545 0.25917282816698106
-30.79276773296246 -3.189216402069021 0.25283142068417364
-30.29207232267038 -3.133238345581609 0.24653200100609085
-29.791376912378297 -3.077068322848752 0.24027487223616661
-29.290681502086244 -3.020706387245993 0.23406033747783128
-28.789986091794162 -2.964152592148813 0.22788869983449744
-28.28929068150208 -2.9074069909327482 0.22176026240961322
-27.788595271210028 -2.850469636973343 0.21567532830659475
-27.287899860917946 -2.7933405836460627 0.20963420062886173
-26.787204450625865 -2.7360198843264802 0.20363718247986584
-26.28650904033381 -2.6785075923900896 0.19768457696302322
-25.78581363004173 -2.6208037612123993 0.19177668718175356
-25.28511821974965 -2.562908444168939 0.18591381623949788
-24.784422809457595 -2.50482169463526 0.18009626723966876
-24.283727399165514 -2.446543565986814 0.17432434328570368
-23.783031988873432 -2.38807411159918 0.16859834748104008
-23.28233657858135 -2.329413384847853 0.1629185829290799
-22.781641168289298 -2.2705614391083477 0.15728535273327837
-22.280945757997216 -2.2115183277561945 0.15169895999705518
-21.780250347705135 -2.1522841041669016 0.14615970782382293
-21.27955493741308 -2.092858821715999 0.14066789931702972
-20.778859527121 -2.033242533779002 0.1352238375800846
-20.27816411682892 -1.9734352937314332 0.1298278257164428
-19.777468706536865 -1.9134371549488014 0.12448016682950269
-19.276773296244784 -1.8532481708066433 0.1191811640227124
-18.776077885952702 -1.7928683946804602 0.11393112039948805
-18.27538247566065 -1.732297879945782 0.10873033906326357
-17.774687065368568 -1.671536679978117 0.1035791231174622
-17.273991655076486 -1.6105848481529952 0.09847777566551785
-16.773296244784433 -1.5494424378459462 0.09342659981085732
-16.27260083449235 -1.488109502432457 0.08842589865690031
-15.77190542420027 -1.4265860952880791 0.08347597530709139
-15.271210013908217 -1.3648722697882993 0.07857713286483958
-14.770514603616135 -1.302968079308676 0.07372967443358236
-14.269819193324054 -1.2408735772247033 0.06893390311675007
-13.769123783032 -1.1785888169119039 0.06419012201775887
-13.268428372739919 -1.1161138517457863 0.059498634240053305
-12.767732962447838 -1.0534487351018944 0.054859742887049534
-12.267037552155784 -0.9905935203557368 0.05027375106217791
-11.766342141863703 -0.9275482608828218 0.045740961868865226
-11.265646731571621 -0.8643130100586864 0.04126167841054185
-10.764951321279568 -0.8008878212588391 0.036836203790641675
-10.264255910987487 -0.7372727478587953 0.032464841112580856
-9.763560500695405 -0.6734678432340919 0.028147893479793296
-9.262865090403352 -0.6094731607602233 0.023885663995705797
-8.76216968011127 -0.5453101529902649 0.019672225312934673
-8.261474269819189 -0.4813118219749647 0.016439568845618896
-7.760778859527136 -0.4176667593880408 0.013630667593880494
