Polar data for 2 at Re = 20000.0
Alpha (deg) Cl Cd
-180.0 -5.811952902833744 1.4764492292058704
-179.49930458970792 -5.825038075388811 1.474559752534447
-178.99860917941587 -5.8380203926877146 1.4726466503553657
-178.49791376912378 -5.850899325587692 1.4707100197590406
-177.9972183588317 -5.863674344945977 1.4687499578358896
-177.49652294853965 -5.876344921619807 1.4667665616763275
-176.99582753824757 -5.888910526466418 1.4647599283707686
-176.4951321279555 -5.901370630343046 1.4627301550096292
-175.99443671766343 -5.913724704106928 1.460677338683324
-175.49374130737135 -5.925972218615298 1.4586015764822693
-174.99304589707927 -5.938112644725393 1.4565029654968789
-174.49235048678722 -5.950145453294453 1.4543816028175698
-173.99165507649514 -5.962070115179709 1.4522375855347578
-173.49095966620305 -5.973886101238398 1.4500710107388564
-172.990264255911 -5.985592882327761 1.4478819755202808
-172.48956884561892 -5.997189929305027 1.4456705769694493
-171.98887343532684 -6.0086767130274366 1.4434369121767738
-171.48817802503476 -6.020052704352225 1.4411810782326717
-170.9874826147427 -6.031317374136627 1.4389031722275591
-170.48678720445062 -6.042470193237883 1.4366032912518487
-169.98609179415854 -6.053510632513222 1.4342815323959592
-169.4853963838665 -6.064438162819887 1.4319379927503033
-168.9847009735744 -6.075252255015113 1.429572769405297
-168.48400556328232 -6.085952379956132 1.4271859594513563
-167.98331015299027 -6.0965380085001835 1.4247776599788966
-167.4826147426982 -6.1070086115045035 1.4223479680783329
-166.9819193324061 -6.117363659826326 1.4198969808400812
-166.48122392211405 -6.127602624322891 1.4174247953545551
-165.98052851182197 -6.137724975851429 1.414931508712173
-165.4798331015299 -6.147730185269183 1.4124172180033474
-164.97913769123784 -6.157617723433385 1.409882020318495
-164.47844228094576 -6.167387061201271 1.4073260127480305
-163.97774687065368 -6.177037669430079 1.4047492923823697
-163.47705146036162 -6.186569018977044 1.4021519563119287
-162.97635605006954 -6.195980580699402 1.3995341016271223
-162.47566063977746 -6.205271825454389 1.3968958254183654
-161.9749652294854 -6.214442224099243 1.3942372247760741
-161.47426981919332 -6.2234912474912 1.391558396790662
-160.97357440890124 -6.232418366487492 1.3888594385525481
-160.4728789986092 -6.241223051945359 1.3861404471521452
-159.9721835883171 -6.2499047747220375 1.3834015196798681
-159.47148817802503 -6.258463005674762 1.3806427532261343
-158.97079276773297 -6.266897215660767 1.377864244881359
-158.4700973574409 -6.275206875537292 1.3750660917359556
-157.9694019471488 -6.283391456161574 1.3722483908803391
-157.46870653685676 -6.291450428390846 1.3694112394049278
-156.96801112656468 -6.299383263082343 1.366554734400136
-156.4673157162726 -6.307189431093307 1.3636789729563783
-155.96662030598054 -6.314868403280968 1.3607840521640715
-155.46592489568846 -6.322419650502566 1.3578700691136292
-154.96522948539638 -6.3298426436153346 1.354937120895467
-154.46453407510432 -6.337136853476513 1.351985304600002
-153.96383866481224 -6.344301750943335 1.349014717317647
-153.46314325452016 -6.351336806873035 1.3460254561388196
-152.9624478442281 -6.358241492122852 1.3430176181539353
-152.46175243393603 -6.365015277550025 1.339991300453407
-151.96105702364395 -6.371657634011785 1.336946600127653
-151.4603616133519 -6.3781680323653696 1.3338836142670871
-150.9596662030598 -6.384545943468016 1.3308024399621252
-150.45897079276773 -6.390790838176958 1.3277031743031813
-149.95827538247568 -6.396902187349434 1.3245859143806729
-149.4575799721836 -6.402879461842681 1.3214507572850143
-148.9568845618915 -6.408722132513933 1.3182978001066208
-148.45618915159943 -6.414429670220426 1.315127139935909
-147.95549374130738 -6.420001545819398 1.311938873863292
-147.4547983310153 -6.425437230168083 1.3087330989791863
-146.95410292072324 -6.43073619412372 1.3055099123740086
-146.45340751043116 -6.435897908543542 1.3022694111381727
-145.95271210013908 -6.44092184428479 1.2990116923620927
-145.452016689847 -6.445807472204693 1.2957368531361886
-144.95132127955495 -6.450554263160493 1.2924449905508717
-144.45062586926286 -6.455161688009423 1.2891362016965577
-143.94993045897078 -6.459629217608722 1.2858105836636624
-143.44923504867873 -6.4639563228156245 1.2824682335426032
-142.94853963838665 -6.4681424744873635 1.279109248423794
-142.44784422809457 -6.472187143481181 1.2757337253976497
-141.9471488178025 -6.476089800654309 1.272341761554586
-141.44645340751043 -6.479849916863987 1.2689334539850186
-140.94575799721835 -6.483466962967448 1.2655088997793622
-140.44506258692627 -6.486940409821929 1.2620681960280327
-139.94436717663422 -6.490269728284668 1.2586114398214439
-139.44367176634213 -6.493454389212897 1.255138728250016
-138.94297635605005 -6.496493863463856 1.2516501584041593
-138.442280945758 -6.499387621894782 1.2481458273742905
-137.94158553546592 -6.5021351353629075 1.2446258322508261
-137.44089012517384 -6.504735874725471 1.2410902701241802
-136.94019471488178 -6.507189310839706 1.23753923808477
-136.4394993045897 -6.509494914562852 1.2339728332230089
-135.93880389429762 -6.511652156752145 1.230391152629314
-135.43810848400557 -6.5136605082648185 1.2267942933940987
-134.9374130737135 -6.515519439958109 1.2231823526077803
-134.4367176634214 -6.517228422689257 1.2195554273607718
-133.93602225312935 -6.518786927315493 1.2159136147434926
-133.43532684283727 -6.520194424694058 1.212257011846353
-132.9346314325452 -6.521450385682184 1.2085857157597721
-132.43393602225314 -6.5225542811371096 1.2048998235741641
-131.93324061196105 -6.52350558191607 1.2011994323799446
-131.43254520166897 -6.524303758876302 1.1974846392675293
-130.93184979137692 -6.524948282875037 1.193755541327333
-130.43115438108484 -6.525438624769521 1.1900122356497707
-129.93045897079276 -6.525774255416981 1.1862548193252587
-129.4297635605007 -6.52595464567466 1.182483389444211
-128.92906815020862 -6.525979266399789 1.1786980430970453
-128.42837273991654 -6.525847588449606 1.1748988773741753
-127.92767732962449 -6.525559082681349 1.1710859893660168
-127.4269819193324 -6.525113219952252 1.1672594761629855
-126.92628650904032 -6.5245094711195515 1.1634194348554954
-126.42559109874827 -6.523747307040481 1.159565962533963
-125.92489568845619 -6.522826198572284 1.1556991562888048
-125.42420027816411 -6.521745616572189 1.1518191132104332
-124.92350486787205 -6.520505031897438 1.1479259303892664
-124.42280945757997 -6.519103915405261 1.1440197049157184
-123.92211404728789 -6.517541737952898 1.1401005338802057
-123.42141863699584 -6.5158179703975865 1.1361685143731415
-122.92072322670376 -6.513932083596561 1.1322237434849431
-122.42002781641168 -6.5118835484070585 1.1282663183060255
-121.91933240611961 -6.5096718356863095 1.1242963359268043
-121.41863699582754 -6.507296416291559 1.1203138934376944
-120.91794158553546 -6.5047567610800385 1.1163190879291105
-120.41724617524339 -6.502052340908985 1.1123120164914702
-119.91655076495132 -6.499182626635631 1.1082927762151873
-119.41585535465924 -6.49614708911722 1.1042614641906758
-118.91515994436718 -6.492945199210982 1.1002181775083542
-118.41446453407511 -6.489576427774155 1.0961630132586353
-117.91376912378303 -6.486040245663976 1.0920960685319367
-117.41307371349096 -6.4823361237376815 1.0880174404186724
-116.91237830319889 -6.478463532852504 1.0839272260092572
-116.41168289290681 -6.474421943865686 1.0798255223941076
-115.91098748261474 -6.470210827634458 1.0757124266636375
-115.41029207232268 -6.465829655016057 1.0715880359082663
-114.9095966620306 -6.461277896867721 1.0674524472184044
-114.40890125173853 -6.456555024046687 1.06330575768447
-113.90820584144646 -6.45166050741019 1.0591480643968771
-113.40751043115438 -6.446593817815465 1.0549794644460424
-112.90681502086231 -6.441354426119748 1.0508000549223806
-112.40611961057024 -6.435941803180277 1.0466099329163066
-111.90542420027816 -6.430355419854286 1.0424091955182369
-111.4047287899861 -6.424594746999014 1.0381979398185863
-110.90403337969401 -6.418659255471694 1.0339762629077707
-110.40333796940195 -6.412548416129567 1.0297442618762047
-109.90264255910988 -6.406261699829864 1.0255020338143033
-109.4019471488178 -6.399798577429824 1.021249675812482
-108.90125173852573 -6.393158519786681 1.0169872849611576
-108.40055632823366 -6.3863409977576735 1.0127149583507467
-107.89986091794158 -6.379345482200036 1.0084327930716595
-107.39916550764951 -6.372171443971003 1.0041408862143162
-106.89847009735745 -6.364818353927816 0.9998393348691299
-106.39777468706536 -6.3572856829277065 0.9955282361265154
-105.8970792767733 -6.349572901827912 0.9912076870768911
-105.39638386648123 -6.34167948148567 0.98687778481067
-104.89568845618915 -6.333604892758215 0.9825386264182661
-104.39499304589708 -6.325348606502784 0.9781903089900994
-103.89429763560501 -6.316910093576613 0.9738329296165822
-103.39360222531293 -6.308288824836936 0.9694665853881301
-102.89290681502086 -6.299484271140994 0.9650913733951572
-102.3922114047288 -6.290495903346018 0.9607073907280816
-101.89151599443672 -6.281323192309246 0.9563147344773157
-101.39082058414465 -6.271965608887914 0.9519135017332796
-100.89012517385257 -6.262422623939262 0.9475037895863845
-100.3894297635605 -6.252693708320521 0.9430856951270452
-99.88873435326843 -6.242778332888932 0.938659315445681
-99.38803894297635 -6.232675968501724 0.9342247476327041
-98.88734353268428 -6.222386086016138 0.9297820887785302
-98.38664812239222 -6.211908156289413 0.9253314359735776
-97.88595271210013 -6.201241650178778 0.9208728863082594
-97.38525730180807 -6.190386038541472 0.9164065368729903
-96.884561891516 -6.179340792234733 0.9119324847581862
-96.38386648122392 -6.168105382115799 0.907450827054261
-95.88317107093185 -6.156679279041901 0.9029616608516355
-95.38247566063978 -6.145061953870275 0.8984650832407195
-94.8817802503477 -6.133252877458164 0.8939611913119294
-94.38108484005564 -6.121251520662799 0.8894500821556819
-93.88038942976357 -6.109057354341417 0.8849318528623926
-93.37969401947149 -6.0966698493512546 0.8804066005224747
-92.87899860917942 -6.084088476549546 0.8758744222263481
-92.37830319888734 -6.071312706793529 0.8713354150644235
-91.87760778859527 -6.058342010940438 0.8667896761271172
-91.3769123783032 -6.045175859847509 0.862237302504846
-90.87621696801112 -6.031813724371986 0.8576783912880255
-90.37552155771905 -6.018255075371094 0.8531130395670705
-89.87482614742699 -6.0044993837020755 0.8485413444323959
-89.3741307371349 -5.99054612022217 0.8439634029744156
-88.87343532684284 -5.976394755788604 0.8393793122835462
-88.37273991655077 -5.962044761258619 0.8347891694502061
-87.87204450625869 -5.947495607489451 0.8301930715648091
-87.37134909596662 -5.93274676533834 0.8255911157177658
-86.87065368567455 -5.917797705662512 0.8209833989994988
-86.36995827538247 -5.902647899319215 0.8163700185004177
-85.8692628650904 -5.887296817165673 0.8117510713109426
-85.36856745479834 -5.871743930059132 0.8071266545214848
-84.86787204450626 -5.855988708856826 0.8024968652224609
-84.36717663421419 -5.840030624415988 0.7978618005042866
-83.86648122392211 -5.823869147593854 0.793221557457382
-83.36578581363004 -5.807503749247665 0.7885762331721549
-82.86509040333797 -5.790933900234656 0.7839259247390244
-82.36439499304589 -5.774159071412056 0.7792707292484056
-81.86369958275382 -5.757178733637113 0.774610743790713
-81.36300417246176 -5.739992357767052 0.7699460654563608
-80.86230876216968 -5.722599414659118 0.7652767913357672
-80.36161335187761 -5.704999375170541 0.7606030185193471
-79.86091794158554 -5.687191710158558 0.7559248440975161
-79.36022253129346 -5.66917589048041 0.7512423651606883
-78.85952712100139 -5.650951386993327 0.7465556787992784
-78.35883171070932 -5.632517670554549 0.741864882103703
-77.85813630041724 -5.613874212021312 0.7371700721643797
-77.35744089012518 -5.595020482250847 0.7324713460717196
-76.85674547983311 -5.575955952100397 0.7277688009161403
-76.35605006954103 -5.556680092427193 0.7230625337880592
-75.85535465924896 -5.5371923740884785 0.7183526417778867
-75.35465924895689 -5.5174922679414795 0.713639221976043
-74.85396383866481 -5.4975792448434415 0.7089223714729402
-74.35326842837274 -5.477452775651596 0.704202187358995
-73.85257301808066 -5.457112331223177 0.699478766724623
-73.3518776077886 -5.4365573824154225 0.6947522066602398
-72.85118219749653 -5.415787400085575 0.6900226042562596
-72.35048678720445 -5.394801855090858 0.6852900566030997
-71.84979137691238 -5.373600218288521 0.6805546607911723
-71.34909596662031 -5.352181960535791 0.6758165139108967
-70.84840055632823 -5.330546552689908 0.6710757130526841
-70.34770514603616 -5.308693465608103 0.6663323553069547
-69.8470097357441 -5.286622170147627 0.6615865377641179
-69.34631432545201 -5.264332137165695 0.6568383575145949
-68.84561891515995 -5.241822837519559 0.6520879116488003
-68.34492350486788 -5.219093742066448 0.6473352972571456
-67.8442280945758 -5.196144321663599 0.6425806114300481
-67.34353268428373 -5.17297404716825 0.6378239512579245
-66.84283727399166 -5.149582389437642 0.6330654138311886
-66.34214186369958 -5.125968819328996 0.6283050962402572
-65.84144645340751 -5.102132807699563 0.6235430955755459
-65.34075104311543 -5.078073825406577 0.6187795089274659
-64.84005563282336 -5.053791343307264 0.6140144333864375
-64.3393602225313 -5.029284832258872 0.6092479660428753
-63.838664812239216 -5.004553763118633 0.6044802039871917
-63.33796940194715 -4.979597606743775 0.5997112443098049
-62.83727399165508 -4.9544158339915505 0.5949411841011307
-62.336578581363 -4.929007915719184 0.5901701204515803
-61.83588317107093 -4.903373322783912 0.585398150451574
-61.335187760778865 -4.877511526042973 0.5806253711915264
-60.834492350486784 -4.851421996353606 0.5758518797618488
-60.333796940194716 -4.825104204573039 0.5710777732529624
-59.83310152990265 -4.798557621558521 0.5663031487552792
-59.33240611961057 -4.7717817181672775 0.5615281033592132
-58.8317107093185 -4.744775965256547 0.5567527341551837
-58.33101529902643 -4.717539833683569 0.5519771382336018
-57.83031988873435 -4.690072794305575 0.547201412684887
-57.329624478442284 -4.662374317979797 0.542425654599453
-56.82892906815022 -4.634443875563489 0.537649961067713
-56.328233657858135 -4.606280937913873 0.5328744291800871
-55.82753824756607 -4.577884975888184 0.5280991560269856
-55.326842837273986 -4.549255460343662 0.523324238698827
-54.82614742698192 -4.520391862137545 0.5185497742860279
-54.32545201668985 -4.491293652127068 0.5137758598789977
-53.82475660639777 -4.461960301169466 0.5090025925681592
-53.3240611961057 -4.4323912801219745 0.5042300694439228
-52.823365785813635 -4.402586059841829 0.4994583875967042
-52.322670375521554 -4.37254411118627 0.4946876441169236
-51.82197496522949 -4.342264905012534 0.4899179360949905
-51.321279554937405 -4.31174791217785 0.48514936062132324
-50.82058414464535 -4.280992603539461 0.48038201478633663
-50.31988873435327 -4.2499984499545995 0.4756159956804446
-49.81919332406119 -4.218764922280499 0.4708514003940664
-49.318497913769136 -4.187291491374404 0.46608832601761335
-48.817802503477054 -4.155577628093543 0.461326869641502
-48.31710709318497 -4.123622803295158 0.45656712835614893
-47.81641168289292 -4.091426487836479 0.4518091992519699
-47.31571627260084 -4.05898815257475 0.4470531794193761
-46.81502086230876 -4.0263072683672 0.44229916594878865
-46.3143254520167 -3.993383306071067 0.4375472559306188
-45.81363004172462 -3.9602157365435833 0.4327975464552866
-45.31293463143254 -3.926804030641991 0.4280501346132008
-44.81223922114049 -3.8931476592235352 0.42330511749478233
-44.311543810848406 -3.859246093145437 0.4185625921904434
-43.810848400556324 -3.8250988032649325 0.4138226557905988
-43.31015299026427 -3.790705260439262 0.40908540538566956
-42.80945757997219 -3.756064935525675 0.40435093806606165
-42.30876216968011 -3.721177299381381 0.39961935092219963
-41.808066759388026 -3.6860418228636327 0.394890741044493
-41.30737134909597 -3.650657976829672 0.3901652055233619
-40.80667593880389 -3.6150252321367216 0.38544284144921764
-40.30598052851181 -3.579143059642016 0.380723745912475
-39.80528511821976 -3.5430109302028097 0.37600801600355677
-39.304589707927676 -3.5066283146763215 0.37129574881286803
-38.803894297635594 -3.4699946839197917 0.3665870414308316
-38.30319888734354 -3.4331095087904675 0.3618819909478596
-37.80250347705146 -3.395972260145564 0.3571806944543669
-37.30180806675938 -3.358582408842331 0.3524832490407736
-36.801112656467325 -3.3209394257380147 0.34778975179748833
-36.30041724617524 -3.283042781689822 0.3431002998149321
-35.79972183588316 -3.244891947555015 0.33841499018351534
-35.29902642559111 -3.2064863941908257 0.3337339199936608
-34.79833101529903 -3.167825592454477 0.32905718633577447
-34.297635605006946 -3.128909013203213 0.32438488630027823
-33.79694019471489 -3.0897361272942856 0.31971711697758515
-33.29624478442281 -3.0503064055849034 0.31505397545811004
-32.79554937413073 -3.0106193189323154 0.31039555883227393
-32.294853963838676 -2.9706743381937653 0.3057419641904828
-31.794158553546595 -2.9304709342264683 0.3010932886231585
-31.293463143254513 -2.8900085778876825 0.296449629220715
-30.79276773296246 -2.8492867400346373 0.291811083073568
-30.29207232267038 -2.808304891524564 0.28717774727213147
-29.791376912378297 -2.7670625032146994 0.28254971890682107
-29.290681502086244 -2.7255590459622923 0.2779270950680543
-28.789986091794162 -2.683793990624558 0.2733099728462433
-28.28929068150208 -2.641766808058737 0.26869844933180737
-27.788595271210028 -2.599476969122083 0.2640926216151586
-27.287899860917946 -2.5569239446718193 0.2594925867867092
-26.787204450625865 -2.5141072055651783 0.25489844193688554
-26.28650904033381 -2.4710262226594057 0.2503102841560944
-25.78581363004173 -2.427680466811731 0.2457282105347533
-25.28511821974965 -2.3840694088793892 0.24115231816327615
-24.784422809457595 -2.340192519719631 0.236582704132084
-24.283727399165514 -2.296049270189675 0.2320194655315801
-23.783031988873432 -2.2516391311467547 0.22746269945219083
-23.28233657858135 -2.206961573448133 0.22291250298433013
-22.781641168289298 -2.1620160679510185 0.21836897321840837
-22.280945757997216 -2.1168020855126564 0.21383220724484658
-21.780250347705135 -2.0713190969902886 0.20930230215405693
-21.27955493741308 -2.0255665732411465 0.2047793550364569
-20.778859527121 -1.9795439851224579 0.20026346298245862
-20.27816411682892 -1.9332508034914735 0.1957547230824796
-19.777468706536865 -1.8866864992054246 0.19125323242693554
-19.276773296244784 -1.8398505431215408 0.18675908810624037
-18.776077885952702 -1.7927424060970694 0.18227238721081335
-18.27538247566065 -1.7453615589892362 0.17779322683106308
-17.774687065368568 -1.6977074726552797 0.17332170405741237
-17.273991655076486 -1.6497796179524435 0.16885791598026983
-16.773296244784433 -1.6015774657379556 0.1644019596900565
-16.27260083449235 -1.553100486869054 0.15995393227718274
-15.77190542420027 -1.5043481522029758 0.15551393083206605
-15.271210013908217 -1.4553199325969572 0.15108205244512746
-14.770514603616135 -1.4060152989082368 0.146658394206772
-14.269819193324054 -1.3564337219940459 0.1422430532074243
-13.769123783032 -1.3065746727116263 0.13783612653749294
-13.268428372739919 -1.2564376219182058 0.13343771128739185
-12.767732962447838 -1.2060220404710247 0.1290479045475474
-12.267037552155784 -1.1553273992273247 0.12466680340836461
-11.766342141863703 -1.1043531690443356 0.12029450496026634
-11.265646731571621 -1.0530988207792973 0.11593110629365938
-10.764951321279568 -1.0015638252894394 0.11157670449896656
-10.264255910987487 -0.949747653432004 0.10723139666659826
-9.763560500695405 -0.8976497760642239 0.10289527988697195
-9.262865090403352 -0.8452696640433413 0.0985684512505069
-8.76216968011127 -0.7926067882265873 0.09425100784760992
-8.261474269819189 -0.7396606194711968 0.08994304676870563
-7.760778859527136 -0.6864306286344153 0.08564466510420082
-7.260083449235054 -0.6329162865734617 0.0813559599445201
