Polar data for a18sm at Re = 180000.0
Alpha (deg) Cl Cd
-180.0 -10.917789509133216 0.9950316146096619
-179.49930458970792 -10.92820219861328 0.992671851757459
-178.99860917941587 -10.938423651062736 0.990295577944783
-178.49791376912378 -10.948453501502522 0.9879029142850843
-177.9972183588317 -10.95829138495355 0.9854939818918137
-177.49652294853965 -10.967936936436738 0.9830689018784226
-176.99582753824757 -10.977389790973012 0.9806277953583599
-176.4951321279555 -10.986649583583288 0.9781707834450774
-175.99443671766343 -10.995715949288483 0.9756979872520254
-175.49374130737135 -11.004588523109527 0.9732095278926548
-174.99304589707927 -11.013266940067336 0.9707055264804146
-174.49235048678722 -11.021750835182823 0.9681861041287566
-173.99165507649514 -11.030039843476919 0.9656513819511324
-173.49095966620305 -11.038133599970537 0.9631014810609907
-172.990264255911 -11.046031739684599 0.9605365225717813
-172.48956884561892 -11.05373389764003 0.9579566275969583
-171.98887343532684 -11.061239708857745 0.9553619172499684
-171.48817802503476 -11.06854880835866 0.9527525126442643
-170.9874826147427 -11.075660831163704 0.9501285348932963
-170.48678720445062 -11.082575412293796 0.9474901051105143
-169.98609179415854 -11.08929218676985 0.9448373444093702
-169.4853963838665 -11.09581078961279 0.9421703739033128
-168.9847009735744 -11.102130855843537 0.939489314705794
-168.48400556328232 -11.108252020483013 0.9367942879302636
-167.98331015299027 -11.114173918552135 0.9340854146901721
-167.4826147426982 -11.119896185071822 0.9313628160989712
-166.9819193324061 -11.125418455062997 0.9286266132701099
-166.48122392211405 -11.13074036354658 0.9258769273170394
-165.98052851182197 -11.13586154554349 0.923113879353212
-165.4798331015299 -11.140781636074648 0.920337590492074
-164.97913769123784 -11.145500270160975 0.9175481818470798
-164.47844228094576 -11.150017082823387 0.9147457745316788
-163.97774687065368 -11.154331709082811 0.9119304896593211
-163.47705146036162 -11.158443783960163 0.9091024483434565
-162.97635605006954 -11.16235294247636 0.9062617716975386
-162.47566063977746 -11.16605881965233 0.9034085808350137
-161.9749652294854 -11.16956105050899 0.9005429968693371
-161.47426981919332 -11.172859270067255 0.8976651409139543
-160.97357440890124 -11.175953113348053 0.8947751340823206
-160.4728789986092 -11.1788422153723 0.891873097487884
-159.9721835883171 -11.181526211160916 0.888959152244095
-159.47148817802503 -11.184004735734826 0.886033419464405
-158.97079276773297 -11.186277424114945 0.8830960202622645
-158.4700973574409 -11.18834391132219 0.880147075751121
-157.9694019471488 -11.190203832377493 0.8771867070444302
-157.46870653685676 -11.191856822301764 0.8742150352556394
-156.96801112656468 -11.193302516115924 0.8712321814982001
-156.4673157162726 -11.1945405488409 0.8682382668855625
-155.96662030598054 -11.195570555497605 0.8652334125311781
-155.46592489568846 -11.196392171106963 0.8622177395484957
-154.96522948539638 -11.197005030689892 0.8591913690509668
-154.46453407510432 -11.197408769267316 0.8561544221520424
-153.96383866481224 -11.197603021860148 0.8531070199651732
-153.46314325452016 -11.197587423489319 0.8500492836038093
-152.9624478442281 -11.197361609175738 0.8469813341814004
-152.46175243393603 -11.19692521394033 0.8439032928113966
-151.96105702364395 -11.19627787280402 0.8408152806072514
-151.4603616133519 -11.195419220787722 0.8377174186824129
-150.9596662030598 -11.194348892912355 0.8346098281503337
-150.45897079276773 -11.193066524198844 0.831492630124462
-149.95827538247568 -11.191571749668109 0.8283659457182494
-149.4575799721836 -11.189864204341065 0.8252298960451451
-148.9568845618915 -11.187943523238639 0.8220846022186016
-148.45618915159943 -11.185809341381747 0.8189301853520706
-147.95549374130738 -11.183461293791309 0.8157667665589995
-147.4547983310153 -11.180899015488247 0.8125944669528399
-146.95410292072324 -11.178122141493484 0.8094134076470435
-146.45340751043116 -11.17513030682793 0.8062237097550594
-145.95271210013908 -11.171923146512516 0.8030254943903384
-145.452016689847 -11.168500295568158 0.7998188826663323
-144.95132127955495 -11.164861389015774 0.79660399569649
-144.45062586926286 -11.161006061876291 0.7933809545942633
-143.94993045897078 -11.156933949170623 0.790149880473103
-143.44923504867873 -11.152644685919688 0.7869108944464572
-142.94853963838665 -11.148137907144415 0.7836641176277795
-142.44784422809457 -11.143413247865722 0.780409671130519
-141.9471488178025 -11.138470343104519 0.7771476760681263
-141.44645340751043 -11.13330882788174 0.7738782535540506
-140.94575799721835 -11.127928337218297 0.7706015247017463
-140.44506258692627 -11.12232850613511 0.7673176106246596
-139.94436717663422 -11.116508969653104 0.7640266324362434
-139.44367176634213 -11.110469362793198 0.7607287112499482
-138.94297635605005 -11.104209320576308 0.7574239681792242
-138.442280945758 -11.097728478023358 0.7541125243375221
-137.94158553546592 -11.091026470155269 0.7507945008382927
-137.44089012517384 -11.084102931992957 0.7474700187949851
-136.94019471488178 -11.076957498557347 0.7441391993210519
-136.4394993045897 -11.069589804869358 0.7408021635299412
-135.93880389429762 -11.061999485949904 0.7374590325351066
-135.43810848400557 -11.054186176819915 0.7341099274499961
-134.9374130737135 -11.046149512500307 0.7307549693880625
-134.4367176634214 -11.037889128011996 0.7273942794627538
-133.93602225312935 -11.02940465837591 0.7240279787875218
-133.43532684283727 -11.020695738612964 0.7206561884758164
-132.9346314325452 -11.011762003744076 0.7172790296410901
-132.43393602225314 -11.002603088790176 0.7138966233967922
-131.93324061196105 -10.993218628772174 0.7105090908563715
-131.43254520166897 -10.983608258710992 0.7071165531332825
-130.93184979137692 -10.973771613627557 0.7037191313409733
-130.43115438108484 -10.963708328542783 0.7003169465928921
-129.93045897079276 -10.953418038477588 0.6969101200024942
-129.4297635605007 -10.942900378452903 0.6934987726832286
-128.92906815020862 -10.932154983489637 0.6900830257485434
-128.42837273991654 -10.921181488608712 0.6866630003118931
-127.92767732962449 -10.909979528831055 0.6832388174867249
-127.4269819193324 -10.89854873917758 0.6798105983864896
-126.92628650904032 -10.886888754669206 0.6763784641246399
-126.42559109874827 -10.87499921032686 0.6729425358146247
-125.92489568845619 -10.86287974117146 0.669502934569895
-125.42420027816411 -10.85052998222392 0.6660597815039014
-124.92350486787205 -10.837949568505168 0.662613197730095
-124.42280945757997 -10.825138135036122 0.6591633043619255
-123.92211404728789 -10.812095316837697 0.6557102225128429
-123.42141863699584 -10.79882074893082 0.6522540732962999
-122.92072322670376 -10.78531406633641 0.6487949778257455
-122.42002781641168 -10.771574904075381 0.6453330572146295
-121.91933240611961 -10.757602897168665 0.6418684325764047
-121.41863699582754 -10.743397680637171 0.6384012250245209
-120.91794158553546 -10.728958889501822 0.6349315556724263
-120.41724617524339 -10.714286158783544 0.6314595456335726
-119.91655076495132 -10.69937912350325 0.6279853160214143
-119.41585535465924 -10.684237418681864 0.6245089879493967
-118.91515994436718 -10.668860679340305 0.6210306825309725
-118.41446453407511 -10.653248540499495 0.6175505208795925
-117.91376912378303 -10.63740063718035 0.6140686241087058
-117.41307371349096 -10.621316604403797 0.6105851133317658
-116.91237830319889 -10.60499607719075 0.607100109662219
-116.41168289290681 -10.58843869056213 0.6036137342135196
-115.91098748261474 -10.571644079538862 0.6001261080991168
-115.41029207232268 -10.554611879141858 0.5966373524324623
-114.9095966620306 -10.537341724392046 0.5931475883270024
-114.40890125173853 -10.519833250310345 0.5896569368961916
-113.90820584144646 -10.50208609191767 0.5861655192534824
-113.40751043115438 -10.484099884234947 0.5826734565123194
-112.90681502086231 -10.465874262283092 0.5791808697861579
-112.40611961057024 -10.447408861083028 0.5756878801884452
-111.90542420027816 -10.428703315655675 0.5721946088326356
-111.4047287899861 -10.409757261021953 0.5687011768321774
-110.90403337969401 -10.39057033220278 0.5652077053005194
-110.40333796940195 -10.37114216421908 0.5617143153511145
-109.90264255910988 -10.35147239209177 0.5582211280974133
-109.4019471488178 -10.331560650841768 0.5547282646528658
-108.90125173852573 -10.311406575490002 0.5512358461309238
-108.40055632823366 -10.29100980105739 0.5477439936450353
-107.89986091794158 -10.270369962564843 0.5442528283086513
-107.39916550764951 -10.249486695033292 0.5407624712352251
-106.89847009735745 -10.228359633483656 0.5372730435382042
-106.39777468706536 -10.206988412936846 0.53378466633104
-105.8970792767733 -10.185372668413796 0.5302974607271845
-105.39638386648123 -10.163512034935417 0.5268115478400875
-104.89568845618915 -10.141406147522625 0.5233270487831972
-104.39499304589708 -10.119054641196353 0.519844084669968
-103.89429763560501 -10.096457150977516 0.516362776613848
-103.39360222531293 -10.073613311887025 0.5128832457282889
-102.89290681502086 -10.050522758945815 0.5094056131267398
-102.3922114047288 -10.027185127174798 0.5059299999226533
-101.89151599443672 -10.003600051594892 0.5024565272294758
-101.39082058414465 -9.979767167227026 0.4989853161606651
-100.89012517385257 -9.955686109092115 0.4955164878296642
-100.3894297635605 -9.931356512211073 0.4920501633499291
-99.88873435326843 -9.906778011604834 0.4885864638349072
-99.38803894297635 -9.881950242294307 0.4851255103980493
-98.88734353268428 -9.85687283930041 0.48166742415280883
-98.38664812239222 -9.831545437644076 0.4782123262126331
-97.88595271210013 -9.805967672346215 0.4747603376909738
-97.38525730180807 -9.780139178427754 0.4713115797012818
-96.884561891516 -9.75405959090961 0.46786617335700786
-96.38386648122392 -9.7277285448127 0.4644242397715993
-95.88317107093185 -9.701145675157948 0.46098590005851225
-95.38247566063978 -9.674310616966272 0.457551275331194
-94.8817802503477 -9.647223005258594 0.45412048670309446
-94.38108484005564 -9.61988247505583 0.4506936552876645
-93.88038942976357 -9.592288661378914 0.4472709021983575
-93.37969401947149 -9.564441199248746 0.4438523485486191
-92.87899860917942 -9.53633972368626 0.44043811545190537
-92.37830319888734 -9.507983869712374 0.4370283240216618
-91.87760778859527 -9.479373272348008 0.4336230953713437
-91.3769123783032 -9.450507566614077 0.4302225506143983
-90.87621696801112 -9.421386387531504 0.4268268108642773
-90.37552155771905 -9.392009370121214 0.42343599723442893
-89.87482614742699 -9.362376149404122 0.4200502308383093
-89.3741307371349 -9.33248636040115 0.416669632789363
-88.87343532684284 -9.30233963813322 0.4132943242010426
-88.37273991655077 -9.271935617621244 0.4099244261867999
-87.87204450625869 -9.241273933886157 0.4065600598600866
-87.37134909596662 -9.210354221948867 0.4032013463343481
-86.87065368567455 -9.179176116830293 0.3998484067230407
-86.36995827538247 -9.147739253551366 0.3965013621396106
-85.8692628650904 -9.116043267133003 0.3931603336975106
-85.36856745479834 -9.084087792596113 0.38982544251019224
-84.86787204450626 -9.051872464961631 0.3864968096911029
-84.36717663421419 -9.019396919250463 0.383174556353696
-83.86648122392211 -8.986660790483546 0.37985880361141977
-83.36578581363004 -8.95366371368179 0.37654967257772765
-82.86509040333797 -8.920405323866111 0.3732472843660669
-82.36439499304589 -8.886885256057441 0.3699517600898893
-81.86369958275382 -8.853103145276696 0.36666322086264735
-81.36300417246176 -8.819058626544782 0.36338178779779107
-80.86230876216968 -8.784751334882637 0.3601075820087659
-80.36161335187761 -8.750180905311185 0.3568407246090316
-79.86091794158554 -8.71534697285132 0.3535813367120292
-79.36022253129346 -8.680249172523995 0.3503295394312148
-78.85952712100139 -8.644887139350109 0.3470854538800393
-78.35883171070932 -8.609260508350582 0.34384920117194906
-77.85813630041724 -8.573368914546345 0.34062090242039933
-77.35744089012518 -8.537211992958314 0.33740067873884094
-76.85674547983311 -8.500789378607399 0.3341886512407176
-76.35605006954103 -8.464100706514534 0.3309849410394864
-75.85535465924896 -8.427145611700643 0.32778966924859454
-75.35465924895689 -8.389923729186625 0.32460295698149644
-74.85396383866481 -8.352434693993418 0.32142492535163847
-74.35326842837274 -8.314678141141941 0.318255695472475
-73.85257301808066 -8.276653705653102 0.31509538845745066
-73.3518776077886 -8.23836102254784 0.3119441254200216
-72.85118219749653 -8.19979972684706 0.30880202747363594
-72.35048678720445 -8.160969453571683 0.3056692157317472
-71.84979137691238 -8.121869837742638 0.3025458113078
-71.34909596662031 -8.082500514380841 0.29943193531525136
-70.84840055632823 -8.042861118507206 0.29632770886754856
-70.34770514603616 -8.002951285142666 0.2932332530781424
-69.8470097357441 -7.9627706493081245 0.29014868906048286
-69.34631432545201 -7.922318846024515 0.2870741379280207
-68.84561891515995 -7.881595510312758 0.2840097207942077
-68.34492350486788 -7.84060027719377 0.28095555877249556
-67.8442280945758 -7.799332781688465 0.27791177297632974
-67.34353268428373 -7.757792658817779 0.2748784845191655
-66.84283727399166 -7.715979543602609 0.27185581451445107
-66.34214186369958 -7.673893071063896 0.26884388407563986
-65.84144645340751 -7.631532876222552 0.2658428143161792
-65.34075104311543 -7.588898594099499 0.2628527263495207
-64.84005563282336 -7.545989859715652 0.25987374128911445
-64.3393602225313 -7.502806308091943 0.25690598024841205
-63.838664812239216 -7.459347574249273 0.25394956434086347
-63.33796940194715 -7.415613293208581 0.25100461467991864
-62.83727399165508 -7.3716030999907804 0.24807125237902927
-62.336578581363 -7.32731662961679 0.2451495985516462
-61.83588317107093 -7.2827535171075315 0.24223977431121935
-61.335187760778865 -7.237913397483924 0.23934190077119866
-60.834492350486784 -7.192795905766884 0.23645609904503584
-60.333796940194716 -7.147400676977339 0.23358249024618083
-59.83310152990265 -7.10172734613621 0.23072119548808268
-59.33240611961057 -7.055775548264416 0.22787233588419575
-58.8317107093185 -7.009544918382863 0.22503603254796556
-58.33101529902643 -6.96303509151249 0.22221240659284558
-57.83031988873435 -6.916245702674205 0.2194015791322893
-57.329624478442284 -6.86917638688894 0.21660367127974134
-56.82892906815022 -6.8218267791776075 0.21381880414865428
-56.328233657858135 -6.774196514561128 0.21104709885248163
-55.82753824756607 -6.726285228060421 0.2082886765046733
-55.326842837273986 -6.678092554696407 0.2055436582186766
-54.82614742698192 -6.629618129490007 0.2028121651079432
-54.32545201668985 -6.58086158746214 0.20009431828592217
-53.82475660639777 -6.5318225636337335 0.19739023886606877
-53.3240611961057 -6.482500693025701 0.19470004796183027
-52.823365785813635 -6.432895610658962 0.1920238666866566
-52.322670375521554 -6.3830069515544405 0.18936181615400127
-51.82197496522949 -6.33283435073305 0.1867140174773133
-51.321279554937405 -6.282377443215717 0.18408059177004177
-50.82058414464535 -6.231635864023362 0.18146166014563836
-50.31988873435327 -6.180609248176902 0.1788573437175548
-49.81919332406119 -6.12929723069726 0.1762677635992428
-49.318497913769136 -6.077699446605356 0.17369304090414694
-48.817802503477054 -6.025815530922097 0.1711332967457243
-48.31710709318497 -5.973645118668424 0.16858865223741948
-47.81641168289292 -5.921187844865253 0.16605922849268684
-47.31571627260084 -5.868443344533498 0.16354514662497988
-46.81502086230876 -5.815411252694071 0.1610465277477423
-46.3143254520167 -5.762091204367914 0.1585634929744285
-45.81363004172462 -5.708482834575927 0.1560961634184893
-45.31293463143254 -5.654585778339035 0.15364466019337641
-44.81223922114049 -5.600399670678174 0.15120910441253443
-44.311543810848406 -5.545924146614249 0.1487896171894204
-43.810848400556324 -5.491158841168174 0.1463863196374816
-43.31015299026427 -5.436103389360886 0.14399933287016975
-42.80945757997219 -5.380757426213288 0.141628778000933
-42.30876216968011 -5.325120586746314 0.13927477614322747
-41.808066759388026 -5.269192505980881 0.13693744841049516
-41.30737134909597 -5.212972818937915 0.13461691591619485
-40.80667593880389 -5.156461160638321 0.1323132997737747
-40.30598052851181 -5.099657166103016 0.13002672109668378
-39.80528511821976 -5.042560470352955 0.12775730099837201
-39.304589707927676 -4.985170708409024 0.12550516059229377
-38.803894297635594 -4.927487515292151 0.12327042099189278
-38.30319888734354 -4.869510526023275 0.12105320331062874
-37.80250347705146 -4.811239375623282 0.1188536286619436
-37.30180806675938 -4.752673699113112 0.1166718181592935
-36.801112656467325 -4.693813131513695 0.11450789291612662
-36.30041724617524 -4.634657307845929 0.11236197404589376
-35.79972183588316 -4.5752058631307495 0.11023418266204399
-35.29902642559111 -4.515458432389083 0.10812463987803345
-34.79833101529903 -4.455414650641826 0.10603346680730585
-34.297635605006946 -4.395074152909908 0.10396078456331648
-33.79694019471489 -4.3344365742142745 0.10190671425951348
-33.29624478442281 -4.273501549575803 0.09987137700934767
-32.79554937413073 -4.212268714015439 0.09785489392627078
-32.294853963838676 -4.150737702554112 0.09585738612373274
-31.794158553546595 -4.088908150212719 0.09387897471518258
-31.293463143254513 -4.026779692012179 0.09191978081407204
-30.79276773296246 -3.9643519629734443 0.08997992553385281
-30.29207232267038 -3.901624598117403 0.08805952998797573
-29.791376912378297 -3.8385972324649864 0.08615871528988717
-29.290681502086244 -3.7752695010371284 0.0842776025530424
-28.789986091794162 -3.7116410388547245 0.08241631289088958
-28.28929068150208 -3.6477114809386912 0.08057496741687953
-27.788595271210028 -3.583480462309988 0.07875368724446663
-27.287899860917946 -3.518947617989499 0.07695259348709282
-26.787204450625865 -3.454112582998159 0.07517180725821604
-26.28650904033381 -3.388974992356888 0.07341144967128621
-25.78581363004173 -3.323534481086599 0.07167164183974972
-25.28511821974965 -3.257790684208205 0.06995250487706095
-24.784422809457595 -3.191743236742662 0.06825415989667072
-24.283727399165514 -3.1253917737108545 0.06657672801202363
-23.783031988873432 -3.0587359301337096 0.06492033033657851
-23.28233657858135 -2.9917753410321617 0.06328508798377908
-22.781641168289298 -2.924509641427117 0.0616711220670797
-22.280945757997216 -2.856938466339495 0.06007855369993298
-21.780250347705135 -2.7890614507902236 0.05850750399578264
-21.27955493741308 -2.72087822980023 0.05695809406808572
-20.778859527121 -2.6523884383904197 0.0554304450302886
-20.27816411682892 -2.5835917115817204 0.053924677995842996
-19.777468706536865 -2.514487684395052 0.05244091407819973
-19.276773296244784 -2.4450759918513136 0.05097927439081318
-18.776077885952702 -2.3753562689714607 0.049539880047124396
-18.27538247566065 -2.305328150776399 0.048122852160594864
-17.774687065368568 -2.234991272287042 0.046728311844667414
-17.273991655076486 -2.164345268524317 0.04535638021279642
-16.773296244784433 -2.0933897745091508 0.044007178378430045
-16.27260083449235 -2.0221244252624353 0.04268082745502089
-15.77190542420027 -1.9505488558051263 0.04137744855601888
-15.271210013908217 -1.8786627011581225 0.040097162794873076
-14.770514603616135 -1.8064655963423513 0.03884009128503696
-14.269819193324054 -1.7339571763787327 0.03760635513995958
-13.769123783032 -1.661137076288194 0.036396075473089096
-13.268428372739919 -1.588004931091627 0.03520937339787811
-12.767732962447838 -1.5145603758099804 0.034046370027779216
-12.267037552155784 -1.440803045464174 0.03290718647623969
-11.766342141863703 -1.366732575075114 0.031791943856712135
-11.265646731571621 -1.2923485996637276 0.03070076328264648
-10.764951321279568 -1.217650754250935 0.029633765867494444
-10.264255910987487 -1.142638673857649 0.028591072724703293
-9.763560500695405 -1.0673119935047972 0.027572804967725628
-9.262865090403352 -0.9916703482133067 0.026579083710012275
-8.76216968011127 -0.9157133730040834 0.025610030065015832
