Polar data for a18sm at Re = 208571.42857142858
Alpha (deg) Cl Cd
-180.0 -13.076257124925043 1.733009376017339
-179.49930458970792 -13.080507222100831 1.7287085797599504
-178.99860917941587 -13.084527799796863 1.7243782748693626
-178.49791376912378 -13.088318818544053 1.7200186861436588
-177.9972183588317 -13.091880238873316 1.7156300383809224
-177.49652294853965 -13.095212021315564 1.7112125563792384
-176.99582753824757 -13.09831412640171 1.7067664649366874
-176.4951321279555 -13.101186514662679 1.702291988851357
-175.99443671766343 -13.10382914662937 1.697789352921327
-175.49374130737135 -13.106241982832707 1.6932587819446834
-174.99304589707927 -13.108424983803609 1.6887005007195093
-174.49235048678722 -13.110378110072986 1.6841147340438871
-173.99165507649514 -13.112101322171746 1.6795017067159037
-173.49095966620305 -13.11359458063081 1.674861643533637
-172.990264255911 -13.114857845981085 1.6701947692951755
-172.48956884561892 -13.1158910787535 1.6655013087986008
-171.98887343532684 -13.116694239478964 1.6607814868419988
-171.48817802503476 -13.117267288688382 1.6560355282234474
-170.9874826147427 -13.117610186912685 1.651263657741037
-170.48678720445062 -13.117722894682768 1.6464661001928471
-169.98609179415854 -13.117605372529564 1.641643080376964
-169.4853963838665 -13.117257580983974 1.636794823091468
-168.9847009735744 -13.11667948057692 1.6319215531344442
-168.48400556328232 -13.115871031839315 1.6270234953039768
-167.98331015299027 -13.114832195302071 1.62210087439815
-167.4826147426982 -13.113562931496105 1.6171539152150434
-166.9819193324061 -13.112063200952335 1.6121828425527465
-166.48122392211405 -13.110332964201664 1.6071878812093399
-165.98052851182197 -13.108372181775021 1.602169255982905
-165.4798331015299 -13.106180814203313 1.5971271916715297
-164.97913769123784 -13.103758822017461 1.5920619130732945
-164.47844228094576 -13.101106165748366 1.5869736449862835
-163.97774687065368 -13.098222805926952 1.58186261220858
-163.47705146036162 -13.09510870308413 1.5767290395382698
-162.97635605006954 -13.091763817750817 1.5715731517734355
-162.47566063977746 -13.088188110457931 1.566395173712162
-161.9749652294854 -13.084381541736377 1.5611953301525272
-161.47426981919332 -13.080344072117075 1.555973845892618
-160.97357440890124 -13.076075662130947 1.550730945730523
-160.4728789986092 -13.0715762723089 1.5454668544643182
-159.9721835883171 -13.066845863181847 1.5401817968920914
-159.47148817802503 -13.061884395280703 1.534875997811925
-158.97079276773297 -13.056691829136383 1.5295496820219032
-158.4700973574409 -13.051268125279805 1.5242030743201092
-157.9694019471488 -13.045613244241878 1.5188363995046261
-157.46870653685676 -13.039727146553517 1.5134498823735374
-156.96801112656468 -13.033609792745647 1.508043747724928
-156.4673157162726 -13.027261143349172 1.5026182203568794
-155.96662030598054 -13.020681158895016 1.4971735250674794
-155.46592489568846 -13.01386979991408 1.4917098866548084
-154.96522948539638 -13.006827026937284 1.4862275299169472
-154.46453407510432 -12.999552800495543 1.4807266796519851
-153.96383866481224 -12.992047081119775 1.475207560658001
-153.46314325452016 -12.98430982934089 1.469670397733081
-152.9624478442281 -12.976341005689807 1.4641154156753107
-152.46175243393603 -12.968140570697436 1.458542839282769
-151.96105702364395 -12.959708484894698 1.4529528933535438
-151.4603616133519 -12.951044708812503 1.4473458026857138
-150.9596662030598 -12.942149202981767 1.4417217920773693
-150.45897079276773 -12.9330219279334 1.4360810863265865
-149.95827538247568 -12.923662844198319 1.430423910231454
-149.4575799721836 -12.914071912307438 1.4247504885900533
-148.9568845618915 -12.904249092791677 1.4190610462004685
-148.45618915159943 -12.894194346181944 1.4133558078607837
-147.95549374130738 -12.883907633009159 1.4076349983690832
-147.4547983310153 -12.87338891380423 1.4018988425234475
-146.95410292072324 -12.862638149098085 1.3961475651219626
-146.45340751043116 -12.851655299421623 1.3903813909627134
-145.95271210013908 -12.840440325305757 1.384600544843778
-145.452016689847 -12.82899318728142 1.3788052515632474
-144.95132127955495 -12.817313845879507 1.3729957359192007
-144.45062586926286 -12.805402261630945 1.367172222709721
-143.94993045897078 -12.79325839506664 1.3613349367328933
-143.44923504867873 -12.780882206717514 1.3554841027868
-142.94853963838665 -12.76827365711448 1.3496199456695326
-142.44784422809457 -12.755432706788454 1.3437426901791625
-141.9471488178025 -12.742359316270349 1.3378525611137766
-141.44645340751043 -12.729053446091076 1.3319497832714635
-140.94575799721835 -12.715515056781548 1.326034581450302
-140.44506258692627 -12.701744108872678 1.320107180448379
-139.94436717663422 -12.6877405628954 1.3141678050637786
-139.44367176634213 -12.67350437938061 1.3082166800945796
-138.94297635605005 -12.659035518859227 1.3022540303388705
-138.442280945758 -12.644333941862158 1.2962800805947303
-137.94158553546592 -12.629399608920334 1.2902950556602475
-137.44089012517384 -12.61423248056466 1.2842991803335018
-136.94019471488178 -12.598832517326045 1.2782926794125782
-136.4394993045897 -12.583199679735419 1.2722757776955618
-135.93880389429762 -12.567333928323677 1.2662486999805331
-135.43810848400557 -12.55123522362176 1.260211671065579
-134.9374130737135 -12.534903526160555 1.254164915748781
-134.4367176634214 -12.518338796470989 1.2481086588282224
-133.93602225312935 -12.501540995083978 1.2420431251019863
-133.43532684283727 -12.484510082530427 1.2359685393681605
-132.9346314325452 -12.467246019341264 1.2298851264248238
-132.43393602225314 -12.4497487660474 1.2237931110700622
-131.93324061196105 -12.43201828317974 1.217692718101958
-131.43254520166897 -12.414054531269208 1.2115841723185952
-130.93184979137692 -12.395857470846725 1.2054676985180608
-130.43115438108484 -12.377427062443186 1.199343521498431
-129.93045897079276 -12.35876326658952 1.193211866057796
-129.4297635605007 -12.339866043816635 1.1870729569942373
-128.92906815020862 -12.320735354655447 1.1809270191058356
-128.42837273991654 -12.301371159636876 1.1747742771906822
-127.92767732962449 -12.28177341929183 1.1686149560468522
-127.4269819193324 -12.261942094151227 1.1624492804724316
-126.92628650904032 -12.241877144745978 1.156277475265508
-126.42559109874827 -12.221578531607008 1.1500997652241605
-125.92489568845619 -12.201046215265219 1.1439163751464747
-125.42420027816411 -12.180280156251527 1.1377275298305332
-124.92350486787205 -12.159280315096847 1.1315334540744164
-124.42280945757997 -12.1380466523321 1.1253343726762175
-123.92211404728789 -12.116579128488201 1.1191305104340117
-123.42141863699584 -12.094877704096053 1.112922092145885
-122.92072322670376 -12.07294233968658 1.106709342609923
-122.42002781641168 -12.050772995790698 1.1004924866242032
-121.91933240611961 -12.02836963293932 1.0942717489868166
-121.41863699582754 -12.005732211663357 1.0880473544958438
-120.91794158553546 -11.98286069249372 1.0818195279493654
-120.41724617524339 -11.959755035961326 1.0755884941454692
-119.91655076495132 -11.936415202597097 1.0693544778822357
-119.41585535465924 -11.912841152931946 1.0631177039577526
-118.91515994436718 -11.889032847496775 1.0568783971701006
-118.41446453407511 -11.864990246822515 1.0506367823173637
-117.91376912378303 -11.840713311440073 1.0443930841976243
-117.41307371349096 -11.81620200188037 1.0381475276089684
-116.91237830319889 -11.791456278674307 1.0319003373494766
-116.41168289290681 -11.766476102352804 1.0256517382172348
-115.91098748261474 -11.741261433446777 1.019401955010327
-115.41029207232268 -11.715812232487146 1.0131512125268376
-114.9095966620306 -11.690128460004818 1.0068997355648452
-114.40890125173853 -11.664210076530711 1.0006477489224395
-113.90820584144646 -11.638057042595737 0.9943954773976972
-113.40751043115438 -11.611669318730812 0.9881431457887045
-112.90681502086231 -11.585046865466854 0.9818909788935509
-112.40611961057024 -11.558189643334774 0.9756392015103151
-111.90542420027816 -11.531097612865484 0.9693880384370795
-111.4047287899861 -11.50377073458991 0.9631377144719336
-110.90403337969401 -11.476208969038947 0.9568884544129509
-110.40333796940195 -11.448412276743536 0.9506404830582226
-109.90264255910988 -11.42038061823456 0.944394025205831
-109.4019471488178 -11.392113954042955 0.9381493056538587
-108.90125173852573 -11.363612244699631 0.9319065492003914
-108.40055632823366 -11.334875450735506 0.925665980643508
-107.89986091794158 -11.305903532681484 0.9194278247812945
-107.39916550764951 -11.276696451068489 0.9131923064118385
-106.89847009735745 -11.247254166427435 0.9069596503332188
-106.39777468706536 -11.217576639289224 0.9007300813435196
-105.8970792767733 -11.187663830184793 0.8945038242408251
-105.39638386648123 -11.157515699645039 0.8882811038232193
-104.89568845618915 -11.127132208200884 0.8820621448887848
-104.39499304589708 -11.096513316383238 0.875847172235609
-103.89429763560501 -11.065658984723015 0.8696364106617728
-103.39360222531293 -11.034569173751134 0.8634300849653583
-102.89290681502086 -11.003243843998508 0.8572284199444463
-102.3922114047288 -10.971682955996059 0.8510316403971298
-101.89151599443672 -10.93988647027468 0.8448399711214786
-101.39082058414465 -10.907854347365316 0.8386536369155929
-100.89012517385257 -10.87558654779885 0.8324728625775445
-100.3894297635605 -10.843083032106222 0.826297872905421
-99.88873435326843 -10.810343760818334 0.8201288926973048
-99.38803894297635 -10.777368694466102 0.8139661467512801
-98.88734353268428 -10.744157793580435 0.8078098598654327
-98.38664812239222 -10.710711018692262 0.8016602568378416
-97.88595271210013 -10.677028330332483 0.7955175624665961
-97.38525730180807 -10.64310968903203 0.7893820015497751
-96.884561891516 -10.608955055321807 0.7832537988854628
-96.38386648122392 -10.574564389732707 0.7771331792717414
-95.88317107093185 -10.53993765279569 0.7710203675066988
-95.38247566063978 -10.505074805041637 0.764915588388419
-94.8817802503477 -10.469975807001468 0.7588190667149773
-94.38108484005564 -10.434640619206107 0.7527310272844668
-93.88038942976357 -10.399069202186457 0.7466516948949681
-93.37969401947149 -10.363261516473436 0.7405812943445599
-92.87899860917942 -10.32721752259797 0.7345200504313353
-92.37830319888734 -10.290937181090964 0.7284681879533678
-91.87760778859527 -10.254420452483327 0.7224259317087486
-91.3769123783032 -10.21766729730599 0.7163935064955583
-90.87621696801112 -10.180677676089843 0.7103711371118776
-90.37552155771905 -10.143451549365828 0.7043590483557959
-89.87482614742699 -10.105988877664835 0.6983574650253938
-89.3741307371349 -10.068289621517792 0.6923666119187554
-88.87343532684284 -10.03035374145562 0.6863867138339631
-88.37273991655077 -9.992181198009213 0.6804179955691011
-87.87204450625869 -9.95377195170952 0.6744606819222553
-87.37134909596662 -9.915125963087405 0.6685149976914991
-86.87065368567455 -9.876243192673826 0.6625811676749346
-86.36995827538247 -9.837123600999682 0.6566594166706298
-85.8692628650904 -9.79776714859588 0.6507499694766742
-85.36856745479834 -9.75817379599335 0.6448530508911502
-84.86787204450626 -9.718343503722991 0.6389688857121455
-84.36717663421419 -9.678276232315731 0.6330976987377354
-83.86648122392211 -9.637971942302485 0.6272397147660128
-83.36578581363004 -9.597430594214153 0.6213951585950513
-82.86509040333797 -9.556652148581662 0.615564255022944
-82.36439499304589 -9.515636565935921 0.6097472288477696
-81.86369958275382 -9.47438380680785 0.6039443048676104
-81.36300417246176 -9.43289383172835 0.5981557078805525
-80.86230876216968 -9.391166601228349 0.5923816626846782
-80.36161335187761 -9.349202075838768 0.5866223940780751
-79.86091794158554 -9.307000216090493 0.5808781268588222
-79.36022253129346 -9.264560982514475 0.5751490858250053
-78.85952712100139 -9.221884335641604 0.5694354957747069
-78.35883171070932 -9.17897023600279 0.5637375815060074
-77.85813630041724 -9.135818644128967 0.5580555678169982
-77.35744089012518 -9.09242952055105 0.552389679505758
-76.85674547983311 -9.048802825799932 0.5467401413703658
-76.35605006954103 -9.004938520406554 0.5411071782089144
-75.85535465924896 -8.960836564901804 0.5354910148194828
-75.35465924895689 -8.916496919816616 0.5298918760001551
-74.85396383866481 -8.871919545681891 0.5243099865490154
-74.35326842837274 -8.827104403028557 0.5187455712641479
-73.85257301808066 -8.78205145238752 0.5131988549436332
-73.3518776077886 -8.736760654289704 0.5076700623855589
-72.85118219749653 -8.691231969266006 0.5021594183880022
-72.35048678720445 -8.645465357847343 0.49666714774905596
-71.84979137691238 -8.599460780564655 0.49119347526679735
-71.34909596662031 -8.55321819794883 0.4857386257393087
-70.84840055632823 -8.506737570530795 0.4803028239646777
-70.34770514603616 -8.460018858841465 0.4748862947409921
-69.8470097357441 -8.413062023411733 0.46948926286632
-69.34631432545201 -8.365867024772548 0.46411195313875975
-68.84561891515995 -8.318433823454804 0.458754590356392
-68.34492350486788 -8.270762379989428 0.4534173993172973
-67.8442280945758 -8.222852654907307 0.4481006048195598
-67.34353268428373 -8.17470460873939 0.44280443166126193
-66.84283727399166 -8.126318202016563 0.43752910464049133
-66.34214186369958 -8.077693395269755 0.4322748485553286
-65.84144645340751 -8.02883014902988 0.42704188820385613
-65.34075104311543 -7.979728423827851 0.4218304483841616
-64.84005563282336 -7.930388180194591 0.4166407538943292
-64.3393602225313 -7.880809378660999 0.41147302953243414
-63.838664812239216 -7.830991979758004 0.40632750009656593
-63.33796940194715 -7.780935944016505 0.40120439038481404
-62.83727399165508 -7.730641231967432 0.3961039251952484
-62.336578581363 -7.680107804141684 0.39102632932596204
-61.83588317107093 -7.62933562107019 0.3859718275750391
-61.335187760778865 -7.578324643283864 0.38094064474055844
-60.834492350486784 -7.527074831313605 0.37593300562060594
-60.333796940194716 -7.475586145690343 0.37094913501326754
-59.83310152990265 -7.423858546944992 0.36598925771662205
-59.33240611961057 -7.371891995608458 0.36105359852875896
-58.8317107093185 -7.3196864522116485 0.3561423822477535
-58.33101529902643 -7.267241877285507 0.3512558336716952
-57.83031988873435 -7.214558231360925 0.3463941775986682
-57.329624478442284 -7.1616354749688185 0.34155763882675305
-56.82892906815022 -7.1084735686401075 0.33674644215403393
-56.328233657858135 -7.055072472905707 0.33196081237859676
-55.82753824756607 -7.001432148296523 0.32720097429852213
-55.326842837273986 -6.947552555343492 0.32246715271189597
-54.82614742698192 -6.8934336545775 0.3177595724168042
-54.32545201668985 -6.839075406529467 0.3130784582113185
-53.82475660639777 -6.78447777173033 0.3084240348935373
-53.3240611961057 -6.729640710710989 0.3037965272615376
-52.823365785813635 -6.674564184002342 0.29919616011340355
-52.322670375521554 -6.6192481521353415 0.2946231582472193
-51.82197496522949 -6.563692575640864 0.29007774646106366
-51.321279554937405 -6.507897415049847 0.2855601495530261
-50.82058414464535 -6.451862630893196 0.2810705923211926
-50.31988873435327 -6.3955881837018325 0.27660929956363833
-49.81919332406119 -6.339074034006664 0.2721764960784546
-49.318497913769136 -6.282320142338612 0.2677724066637185
-48.817802503477054 -6.225326469228584 0.26339725611751585
-48.31710709318497 -6.168092975207479 0.2590512692379344
-47.81641168289292 -6.110619620806254 0.25473467082305123
-47.31571627260084 -6.052906366555796 0.25044768567095754
-46.81502086230876 -5.994953172987017 0.24619053857972506
-46.3143254520167 -5.936760000630841 0.24196345434744682
-45.81363004172462 -5.87832681001818 0.2377666577722105
-45.31293463143254 -5.819653561679942 0.2336003736520914
-44.81223922114049 -5.760740216147042 0.2294648267851701
-44.311543810848406 -5.701586733950421 0.22536024196954318
-43.810848400556324 -5.642193075620945 0.2212868440032788
-43.31015299026427 -5.582559201689584 0.21724485768447177
-42.80945757997219 -5.522685072687196 0.2132345078112009
-42.30876216968011 -5.4625706491447446 0.20925601918155212
-41.808066759388026 -5.402215891593102 0.20530961659360603
-41.30737134909597 -5.341620760563231 0.20139552484544676
-40.80667593880389 -5.280785216586004 0.19751396873516558
-40.30598052851181 -5.21970922019235 0.1936651730608342
-39.80528511821976 -5.158392731913203 0.1898493626205474
-39.304589707927676 -5.096835712279436 0.18606676221237695
-38.803894297635594 -5.035038121821991 0.18231759663441582
-38.30319888734354 -4.972999921071789 0.1786020906847411
-37.80250347705146 -4.910721070559731 0.17492046916144222
-37.30180806675938 -4.848201530816716 0.1712729568625998
-36.801112656467325 -4.785441262373709 0.16765977858629977
-36.30041724617524 -4.722440225761574 0.16408115913062093
-35.79972183588316 -4.6591983815112386 0.16053732329364923
-35.29902642559111 -4.5957156901536464 0.15702849587347056
-34.79833101529903 -4.531992112219655 0.15355490166816732
-34.297635605006946 -4.468027608240227 0.15011676547582187
-33.79694019471489 -4.403822138746278 0.14671431209451657
-33.29624478442281 -4.339375664268687 0.14334776632233737
-32.79554937413073 -4.274688145338388 0.1400173529573684
-32.294853963838676 -4.209759542486317 0.13672329679769202
-31.794158553546595 -4.1445898162433465 0.13346582264138884
-31.293463143254513 -4.0791789271404255 0.13024515528655012
-30.79276773296246 -4.013526835708447 0.12706151953125644
-30.29207232267038 -3.947633502478333 0.1239151401735884
-29.791376912378297 -3.8814988879809964 0.12080624201162482
-29.290681502086244 -3.8151229527473736 0.11773504984346406
-28.789986091794162 -3.748505657308329 0.11470178846717427
-28.28929068150208 -3.681646962194819 0.11170668268084849
-27.788595271210028 -3.6145468279377657 0.10874995728257086
-27.287899860917946 -3.5472052150680473 0.10583183707041843
-26.787204450625865 -3.4796220841165924 0.10295254684247712
-26.28650904033381 -3.4117973956143364 0.10011231139683463
-25.78581363004173 -3.343731110092158 0.09731135553157333
-25.28511821974965 -3.275423188081 0.09454990404477026
-24.784422809457595 -3.2068735901117766 0.09182818173451845
-24.283727399165514 -3.1380822767153664 0.0891464133988914
-23.783031988873432 -3.0690492084227263 0.08650482383598213
-23.28233657858135 -2.9997743457647563 0.08390363784387123
-22.781641168289298 -2.9302576492723706 0.08134308022063397
-22.280945757997216 -2.8604990794764764 0.07882337576436871
-21.780250347705135 -2.790498596908002 0.07634474927315071
-21.27955493741308 -2.7202561620978547 0.07390742554506413
-20.778859527121 -2.6497717355769415 0.07151162937818956
-20.27816411682892 -2.5790452778761908 0.06915758557061824
-19.777468706536865 -2.5080767495265097 0.06684551892042723
-19.276773296244784 -2.4368661110588055 0.06457565422570422
-18.776077885952702 -2.3654133230040135 0.06234821628452625
-18.27538247566065 -2.293718345893034 0.06016342989498458
-17.774687065368568 -2.2217811402567738 0.05802151985516335
-17.273991655076486 -2.1496016666261686 0.055922710963137834
-16.773296244784433 -2.0771798855321184 0.05386722801699573
-16.27260083449235 -2.0045157575055375 0.05185529581482473
-15.77190542420027 -1.9316092430773542 0.049887139154703664
-15.271210013908217 -1.8584603027784543 0.04796298283471845
-14.770514603616135 -1.7850688971397806 0.04608305165294968
-14.269819193324054 -1.71143498669224 0.04424757040748506
-13.769123783032 -1.637558531966754 0.04245676389640518
-13.268428372739919 -1.5634394934942013 0.04071085691779419
-12.767732962447838 -1.4890778318055458 0.03901007426973624
-12.267037552155784 -1.4144735074316732 0.03735464075031547
-11.766342141863703 -1.339626480903498 0.035744781157610706
-11.265646731571621 -1.2645367127519482 0.03418072028971497
-10.764951321279568 -1.1892041635079313 0.032662682944703536
-10.264255910987487 -1.1136287937023543 0.03119089392066232
-9.763560500695405 -1.0378105638661386 0.029765578015677252
-9.262865090403352 -0.9617494345302124 0.028386960027828922
-8.76216968011127 -0.8854453662254618 0.027055264755205033
