Polar data for 2 at Re = 134285.7142857143
Alpha (deg) Cl Cd
-180.0 -9.40952500704089 0.7030337256525789
-179.49930458970792 -9.423015876230439 0.7013178095443604
-178.99860917941587 -9.43634266039955 0.6995909802661688
-178.49791376912378 -9.449504828837059 0.6978533202469501
-177.9972183588317 -9.46250185083179 0.6961049119156537
-177.49652294853965 -9.475333195672581 0.6943458377012259
-176.99582753824757 -9.487998332648264 0.6925761800326153
-176.4951321279555 -9.500496731047667 0.69079602133877
-175.99443671766343 -9.512827860159623 0.6890054440486373
-175.49374130737135 -9.524991189272965 0.6872045305911652
-174.99304589707927 -9.536986187676524 0.6853933633953022
-174.49235048678722 -9.548812324659133 0.6835720248899944
-173.99165507649514 -9.56046906950962 0.6817405975041906
-173.49095966620305 -9.571955891516824 0.679899163666839
-172.990264255911 -9.58327225996957 0.6780478058068864
-172.48956884561892 -9.59441764415669 0.6761866063532813
-171.98887343532684 -9.60539151336702 0.6743156477349719
-171.48817802503476 -9.61619333688939 0.6724350123809058
-170.9874826147427 -9.62682258401263 0.6705447827200302
-170.48678720445062 -9.637278724025572 0.6686450411812923
-169.98609179415854 -9.64756122621705 0.6667358701936417
-169.4853963838665 -9.657669559875895 0.664817352186025
-168.9847009735744 -9.66760319429094 0.6628895695873904
-168.48400556328232 -9.677361598751013 0.660952604826686
-167.98331015299027 -9.686944242544948 0.6590065403328591
-167.4826147426982 -9.696350594961578 0.6570514585348577
-166.9819193324061 -9.705580125289734 0.6550874418616295
-166.48122392211405 -9.714632302818245 0.6531145727421217
-165.98052851182197 -9.723506596835948 0.6511329336052838
-165.4798331015299 -9.73220247663167 0.6491426068800625
-164.97913769123784 -9.740719411494245 0.6471436749954047
-164.47844228094576 -9.749056870712506 0.6451362203802602
-163.97774687065368 -9.757214323575283 0.6431203254635753
-163.47705146036162 -9.765191239371406 0.6410960726742982
-162.97635605006954 -9.772987087389712 0.6390635444413766
-162.47566063977746 -9.780601336919025 0.6370228231937594
-161.9749652294854 -9.788033457248186 0.6349739913603929
-161.47426981919332 -9.79528291766602 0.6329171313702253
-160.97357440890124 -9.802349187461362 0.6308523256522052
-160.4728789986092 -9.809231735923042 0.6287796566352788
-159.9721835883171 -9.815930032339892 0.6266992067483956
-159.47148817802503 -9.822443546000745 0.6246110584205029
-158.97079276773297 -9.828771746194432 0.6225152940805487
-158.4700973574409 -9.834914102209785 0.6204119961574794
-157.9694019471488 -9.840870083335636 0.6183012470802445
-157.46870653685676 -9.846639158860816 0.6161831292777906
-156.96801112656468 -9.852220798074157 0.6140577251790669
-156.4673157162726 -9.857614470264492 0.6119251172130191
-155.96662030598054 -9.86281964472065 0.6097853878085981
-155.46592489568846 -9.867835790731466 0.6076386193947485
-154.96522948539638 -9.872662377585769 0.6054848944004192
-154.46453407510432 -9.877298874572393 0.6033242952545592
-153.96383866481224 -9.881744750980168 0.6011569043861154
-153.46314325452016 -9.885999476097927 0.5989828042240353
-152.9624478442281 -9.890062519214503 0.5968020771972671
-152.46175243393603 -9.893933349618726 0.5946148057347576
-151.96105702364395 -9.897611436599426 0.5924210722654566
-151.4603616133519 -9.901096249445436 0.5902209592183105
-150.9596662030598 -9.904387257445594 0.5880145490222675
-150.45897079276773 -9.907483929888722 0.5858019241062751
-149.95827538247568 -9.910385736063654 0.5835831668992815
-149.4575799721836 -9.913092145259226 0.5813583598302339
-148.9568845618915 -9.91560262676427 0.5791275853280804
-148.45618915159943 -9.917916649867614 0.57689092582177
-147.95549374130738 -9.920033683858092 0.5746484637402491
-147.4547983310153 -9.921953198024534 0.5724002815124658
-146.95410292072324 -9.923674661655774 0.5701464615673677
-146.45340751043116 -9.925197544040639 0.567887086333903
-145.95271210013908 -9.926521314467971 0.5656222382410188
-145.452016689847 -9.92764544222659 0.5633519997176641
-144.95132127955495 -9.928569396605335 0.5610764531927863
-144.45062586926286 -9.929292646893034 0.5587956810953325
-143.94993045897078 -9.92981466237852 0.5565097658542504
-143.44923504867873 -9.930134912350628 0.5542187898984889
-142.94853963838665 -9.930252866098181 0.5519228356569963
-142.44784422809457 -9.930167992910025 0.5496219855587183
-141.9471488178025 -9.929879762074977 0.5473163220326045
-141.44645340751043 -9.929387642881883 0.5450059275076007
-140.94575799721835 -9.92869110461956 0.5426908844126568
-140.44506258692627 -9.927789616576849 0.54037127517672
-139.94436717663422 -9.926682648042581 0.538047182228738
-139.44367176634213 -9.925369668305583 0.5357186879976585
-138.94297635605005 -9.923850146654695 0.5333858749124292
-138.442280945758 -9.922123552378745 0.531048825401998
-137.94158553546592 -9.920189354766558 0.5287076218953128
-137.44089012517384 -9.918047023106974 0.5263623468213212
-136.94019471488178 -9.915696026688824 0.5240130826089713
-136.4394993045897 -9.913135834800936 0.5216599116872112
-135.93880389429762 -9.910365916732147 0.519302916484988
-135.43810848400557 -9.90738574177128 0.5169421794312488
-134.9374130737135 -9.90419477920718 0.514577782954944
-134.4367176634214 -9.900792498328665 0.512209809485018
-133.93602225312935 -9.89717836842458 0.5098383414504224
-133.43532684283727 -9.893351858783744 0.5074634612801008
-132.9346314325452 -9.889312438694994 0.5050852514030049
-132.43393602225314 -9.885059577447166 0.5027037942480801
-131.93324061196105 -9.880592744329084 0.5003191722442755
-131.43254520166897 -9.87591140862959 0.49793146782053643
-130.93184979137692 -9.871015039637507 0.4955407634058151
-130.43115438108484 -9.86590310664167 0.49314714142905514
-129.93045897079276 -9.860575078930907 0.4907506843192073
-129.4297635605007 -9.855030425794057 0.48835147450521754
-128.92906815020862 -9.849268616519943 0.48594959441603347
-128.42837273991654 -9.843289120397408 0.483545126480605
-127.92767732962449 -9.837091406715272 0.4811381531278771
-127.4269819193324 -9.830674944762377 0.47872875678679927
-126.92628650904032 -9.824039203827548 0.4763170198863196
-126.42559109874827 -9.817183653199619 0.4739030248553857
-125.92489568845619 -9.810107762167421 0.471486854122944
-125.42420027816411 -9.802811000019785 0.4690685901179439
-124.92350486787205 -9.795292836045546 0.46664831526933304
-124.42280945757997 -9.787552739533533 0.4642261120060591
-123.92211404728789 -9.77959017977258 0.46180206275706936
-123.42141863699584 -9.771404626051519 0.45937624995131054
-122.92072322670376 -9.762995547659175 0.4569487560177343
-122.42002781641168 -9.754362413884389 0.4545196633852835
-121.91933240611961 -9.745504694015986 0.45208905448291015
-121.41863699582754 -9.736421857342803 0.4496570117395593
-120.91794158553546 -9.727113373153673 0.4472236175841804
-120.41724617524339 -9.717578710737415 0.44478895444572064
-119.91655076495132 -9.707817339382878 0.4423531047531273
-119.41585535465924 -9.697828728378882 0.43991615093534886
-118.91515994436718 -9.687612347014262 0.43747817542133305
-118.41446453407511 -9.677167664577851 0.4350392606400275
-117.91376912378303 -9.666494150358478 0.43259948902038037
-117.41307371349096 -9.655591273644982 0.4301589429913397
-116.91237830319889 -9.644458503726185 0.42771770498185147
-116.41168289290681 -9.633095309890926 0.4252758574208655
-115.91098748261474 -9.621501161428032 0.42283348273732857
-115.41029207232268 -9.609675527626338 0.4203906633601897
-114.9095966620306 -9.597617877774676 0.41794748171839435
-114.40890125173853 -9.585327681161877 0.4155040202408933
-113.90820584144646 -9.572804407076768 0.4130603613566324
-113.40751043115438 -9.56004752480819 0.41061658749455887
-112.90681502086231 -9.547056503644965 0.4081727810836231
-112.40611961057024 -9.533830812875934 0.40572902455277005
-111.90542420027816 -9.520369921789921 0.4032854003309492
-111.4047287899861 -9.506673299675764 0.4008419908471086
-110.90403337969401 -9.492740415822292 0.3983988785301946
-110.40333796940195 -9.478570739518334 0.3959561458091563
-109.90264255910988 -9.464163740052728 0.39351387511294034
-109.4019471488178 -9.449518886714296 0.39107214887049624
-108.90125173852573 -9.434635648791884 0.3886310495107699
-108.40055632823366 -9.41951349557431 0.3861906594627098
-107.89986091794158 -9.404151896350415 0.38375106115526414
-107.39916550764951 -9.388550320409026 0.3813123370173819
-106.89847009735745 -9.372708237038978 0.378874569478008
-106.39777468706536 -9.3566251155291 0.376437840966092
-105.8970792767733 -9.340300425168225 0.37400223391058196
-105.39638386648123 -9.323733635245182 0.3715678307404251
-104.89568845618915 -9.306924215048808 0.3691347138845682
-104.39499304589708 -9.289871633867932 0.36670296577196204
-103.89429763560501 -9.272575360991386 0.36427266883155207
-103.39360222531293 -9.255034865707998 0.3618439054922864
-102.89290681502086 -9.237249617306604 0.35941675818311136
-102.3922114047288 -9.219219085076041 0.3569913093329786
-101.89151599443672 -9.200942738305132 0.35456764137083274
-101.39082058414465 -9.18242004628271 0.35214583672562316
-100.89012517385257 -9.16365047829761 0.34972597782629666
-100.3894297635605 -9.144633503638662 0.3473081471018009
-99.88873435326843 -9.125368591594698 0.34489242698108535
-99.38803894297635 -9.10585521145455 0.3424788998930963
-98.88734353268428 -9.08609283250705 0.3400676482667815
-98.38664812239222 -9.066080924041033 0.3376587545310903
-97.88595271210013 -9.04581895534532 0.33525230111496906
-97.38525730180807 -9.025306395708755 0.33284837044736637
-96.884561891516 -9.004542714420163 0.33044704495722943
-96.38386648122392 -8.983527380768379 0.328048407073505
-95.88317107093185 -8.962259864042233 0.3256525392251439
-95.38247566063978 -8.940739633530553 0.32325952384109113
-94.8817802503477 -8.91896615852218 0.3208694433502952
-94.38108484005564 -8.896938908305941 0.31848238018170516
-93.88038942976357 -8.874657352170667 0.3160984167642682
-93.37969401947149 -8.852120959405188 0.3137176355269302
-92.87899860917942 -8.829329199298336 0.31134011889864155
-92.37830319888734 -8.80628154113895 0.30896594930834853
-91.87760778859527 -8.782977454215853 0.30659520918500105
-91.3769123783032 -8.759416407817882 0.3042279809575441
-90.87621696801112 -8.735597871233871 0.30186434705492804
-90.37552155771905 -8.711521313752637 0.29950438990609785
-89.87482614742699 -8.687186204663032 0.29714819194000386
-89.3741307371349 -8.66259201325388 0.29479583558559197
-88.87343532684284 -8.637738208814005 0.2924474032718112
-88.37273991655077 -8.61262426063225 0.29010297742760915
-87.87204450625869 -8.587249637997436 0.287762640481934
-87.37134909596662 -8.561613810198406 0.2854264748637325
-86.87065368567455 -8.535716246523984 0.2830945630019541
-86.36995827538247 -8.509556416263008 0.2807669873255447
-85.8692628650904 -8.483133788704299 0.2784438302634529
-85.36856745479834 -8.456447833136698 0.2761251742446271
-84.86787204450626 -8.429498018849037 0.27381110169801426
-84.36717663421419 -8.402283815130144 0.2715016950525615
-83.86648122392211 -8.374804691268855 0.2691970367372196
-83.36578581363004 -8.347060116553996 0.2668972091809345
-82.86509040333797 -8.319049560274399 0.2646022948126521
-82.36439499304589 -8.290772491718903 0.26231237606132307
-81.86369958275382 -8.262228380176333 0.26002753535589385
-81.36300417246176 -8.233416694935523 0.2577478551253125
-80.86230876216968 -8.204336905285308 0.2554734177985263
-80.36161335187761 -8.17498848051451 0.25320430580448505
-79.86091794158554 -8.145370889911968 0.25094060157213427
-79.36022253129346 -8.115483602766522 0.24868238753042293
-78.85952712100139 -8.085326088366989 0.24642974610829782
-78.35883171070932 -8.054897816002205 0.2441827597347075
-77.85813630041724 -8.024198254961005 0.24194151083860005
-77.35744089012518 -7.993226874532219 0.23970608184892317
-76.85674547983311 -7.961983144004678 0.23747655519462363
-76.35605006954103 -7.930466532667216 0.23525301330465087
-75.85535465924896 -7.898676509808666 0.23303553860795212
-75.35465924895689 -7.866612544717851 0.2308242135334746
-74.85396383866481 -7.834274106683619 0.22861912051016642
-74.35326842837274 -7.801660664994786 0.2264203419669757
-73.85257301808066 -7.768771688940189 0.22422796033284875
-73.3518776077886 -7.735606647808659 0.22204205803673638
-72.85118219749653 -7.702165010889031 0.21986271750758313
-72.35048678720445 -7.668446247470136 0.2176900211743389
-71.84979137691238 -7.634449826840807 0.21552405146595088
-71.34909596662031 -7.600175218289872 0.21336489081136722
-70.84840055632823 -7.56562189110616 0.21121262163953514
-70.34770514603616 -7.530789314578511 0.20906732637940273
-69.8470097357441 -7.495676957995753 0.20692908745991634
-69.34631432545201 -7.460284290646717 0.20479798731002763
-68.84561891515995 -7.4246107818202365 0.20267410835868027
-68.34492350486788 -7.388655900805141 0.20055753303482415
-67.8442280945758 -7.35241911689026 0.1984483437674074
-67.34353268428373 -7.3158998993644335 0.1963466229853763
-66.84283727399166 -7.279097717516493 0.1942524531176808
-66.34214186369958 -7.242012040635258 0.19216591659326543
-65.84144645340751 -7.204642338009572 0.19008709584108008
-65.34075104311543 -7.166988078928259 0.18801607329007375
-64.84005563282336 -7.129048732680156 0.185952931369191
-64.3393602225313 -7.090823768554097 0.1838977525073835
-63.838664812239216 -7.052312655838913 0.18185061913359668
-63.33796940194715 -7.013514863823422 0.17981161367677867
-62.83727399165508 -6.974429861796475 0.17778081856587669
-62.336578581363 -6.935057119046897 0.17575831622983884
-61.83588317107093 -6.895396104863513 0.17374418909761413
-61.335187760778865 -6.855446288535164 0.17173851959814979
-60.834492350486784 -6.815207139350678 0.16974139016039214
-60.333796940194716 -6.7746781265988805 0.16775288321329285
-59.83310152990265 -6.733858719568614 0.1657730811857947
-59.33240611961057 -6.692748387548713 0.16380206650684936
-58.8317107093185 -6.651346599827987 0.1618399216054014
-58.33101529902643 -6.609652825695299 0.1598867289103998
-57.83031988873435 -6.567666534439454 0.15794257085079533
-57.329624478442284 -6.525387195349291 0.15600752985553257
-56.82892906815022 -6.482814277713658 0.15408168835355962
-56.328233657858135 -6.439947250821367 0.15216512877382637
-55.82753824756607 -6.396785583961256 0.1502579335452774
-55.326842837273986 -6.3533287464221555 0.14836018509686344
-54.82614742698192 -6.3095762074929045 0.14647196585753175
-54.32545201668985 -6.265527436462326 0.144593358256226
-53.82475660639777 -6.221181902619259 0.1427244447219005
-53.3240611961057 -6.1765390752525295 0.14086530768349892
-52.823365785813635 -6.131598423650969 0.1390160295699694
-52.322670375521554 -6.086359417103415 0.13717669281026357
-51.82197496522949 -6.040821524898698 0.13534737983332334
-51.321279554937405 -5.994984216325642 0.1335281730680986
-50.82058414464535 -5.948846960673089 0.13171915494354014
-50.31988873435327 -5.902409227229869 0.1299204078885925
-49.81919332406119 -5.855670485284801 0.12813201433220556
-49.318497913769136 -5.808630204126738 0.1263540567033239
-48.817802503477054 -5.761287853044495 0.12458661743090005
-48.31710709318497 -5.713642901326908 0.12282977894387681
-47.81641168289292 -5.665694818262812 0.12108362367120495
-47.31571627260084 -5.617443073141041 0.11934823404183259
-46.81502086230876 -5.5688871352504155 0.11762369248470605
-46.3143254520167 -5.5200264738797795 0.11591008142877346
-45.81363004172462 -5.470860558317957 0.11420748330298469
-45.31293463143254 -5.421388857853783 0.11251598053628431
-44.81223922114049 -5.371610841776095 0.11083565555762309
-44.311543810848406 -5.321525979373712 0.10916659079594737
-43.810848400556324 -5.27113373993547 0.1075088686802026
-43.31015299026427 -5.220433592750213 0.10586257163934043
-42.80945757997219 -5.169425007106758 0.10422778210230454
-42.30876216968011 -5.118107452293936 0.10260458249804838
-41.808066759388026 -5.066480397600591 0.10099305525551472
-41.30737134909597 -5.0145433123155545 0.09939328280365523
-40.80667593880389 -4.962295665727639 0.09780534757141712
-40.30598052851181 -4.909736927125694 0.09622933198774408
-39.80528511821976 -4.856866565798553 0.09466531848158954
-39.304589707927676 -4.803684051035033 0.09311338948189718
-38.803894297635594 -4.750188852123978 0.09157362741761421
-38.30319888734354 -4.69638043835422 0.09004611471769142
-37.80250347705146 -4.6422582790145785 0.0885309338110778
-37.30180806675938 -4.587821843393899 0.08702816712671524
-36.801112656467325 -4.533070600781011 0.08553789709355986
-36.30041724617524 -4.478004020464736 0.08406020614055176
-35.79972183588316 -4.422621571733915 0.08259517669663996
-35.29902642559111 -4.366922723877385 0.08114289119077789
-34.79833101529903 -4.310906946183961 0.07970343205190922
-34.297635605006946 -4.254573707942486 0.07827688170898028
-33.79694019471489 -4.197922478441802 0.07686332259094186
-33.29624478442281 -4.140952726970712 0.07546283712674029
-32.79554937413073 -4.0836639228180704 0.07407550774532279
-32.294853963838676 -4.026055535272713 0.07270141687563925
-31.794158553546595 -3.9681270336234444 0.07134064694663689
-31.293463143254513 -3.909877887159121 0.06999328038726116
-30.79276773296246 -3.851307565168577 0.06865939962646284
-30.29207232267038 -3.792415536940622 0.06733908709318914
-29.791376912378297 -3.7332012717640968 0.06603242521638553
-29.290681502086244 -3.6736642389278575 0.06473949642500365
-28.789986091794162 -3.613803907720703 0.06346038314798719
-28.28929068150208 -3.5536197474314672 0.062195167814287806
-27.788595271210028 -3.493111227349006 0.06094393285285183
-27.287899860917946 -3.4322778167621326 0.059706760692623824
-26.787204450625865 -3.3711189849596774 0.058483733762554564
-26.28650904033381 -3.3096342012304927 0.05727493449159483
-25.78581363004173 -3.2478229348633807 0.05608044530868828
-25.28511821974965 -3.185684655147183 0.05490034864278393
-24.784422809457595 -3.1232188313707585 0.053734726922829
-24.283727399165514 -3.0604249328229063 0.0525836625777707
-23.783031988873432 -2.9973024287924606 0.051447238036559824
-23.28233657858135 -2.9338507885682734 0.05032553572814092
-22.781641168289298 -2.8700694814391614 0.0492186380814621
-22.280945757997216 -2.805957976693948 0.04812662752547504
-21.780250347705135 -2.741515743621493 0.047049586489121616
-21.27955493741308 -2.6767422515106087 0.04598759740135617
-20.778859527121 -2.6116369696501227 0.0449407426911197
-20.27816411682892 -2.5461993673288763 0.043909104787365656
-19.777468706536865 -2.4804289138357003 0.042892766119036814
-19.276773296244784 -2.4143250784594184 0.041891809115086616
-18.776077885952702 -2.3478873304888825 0.04090631620445873
-18.27538247566065 -2.2811151392129023 0.039936369816102164
-17.774687065368568 -2.214007973920312 0.0389820523789668
-17.273991655076486 -2.1465653038999566 0.03804344632199542
-16.773296244784433 -2.078786598440667 0.037120634074140575
-16.27260083449235 -2.0106713268312593 0.03621369806434772
-15.77190542420027 -1.9422189583605791 0.035322720721564956
-15.271210013908217 -1.8734289623174532 0.0344477844747404
-14.770514603616135 -1.8043008079907124 0.03358897175282217
-14.269819193324054 -1.734833964669191 0.03274636498475748
-13.769123783032 -1.665027901641727 0.03192004659949444
-13.268428372739919 -1.59488208819713 0.03111009902598117
-12.767732962447838 -1.5243959936242553 0.03031660469316489
-12.267037552155784 -1.4535690872119267 0.02953964602999371
-11.766342141863703 -1.382400838248975 0.02877930546541397
-11.265646731571621 -1.310890716024238 0.02803566542837644
-10.764951321279568 -1.239038189826536 0.027308808347827458
-10.264255910987487 -1.166842728944703 0.026598816652714248
-9.763560500695405 -1.094303802667577 0.02590577277198492
-9.262865090403352 -1.0214208802839926 0.0252297591345867
-8.76216968011127 -0.9481934310827695 0.024570858169468586
-8.261474269819189 -0.8746209243527494 0.023929152305579578
