Polar data for a18sm at Re = 111428.57142857143
Alpha (deg) Cl Cd
-180.0 -5.637161099491798 1.1193323282471583
-179.49930458970792 -5.648028359396495 1.1164676523716395
-178.99860917941587 -5.658793733679788 1.1135843973026978
-178.49791376912378 -5.669456797917971 1.1106827096109169
-177.9972183588317 -5.680017127687334 1.1077627358668773
-177.49652294853965 -5.690474298564172 1.1048246226411615
-176.99582753824757 -5.700827886124776 1.1018685165043491
-176.4951321279555 -5.711077465945438 1.098894564027023
-175.99443671766343 -5.7212226136024515 1.0959029117797652
-175.49374130737135 -5.731262904672109 1.0928937063331565
-174.99304589707927 -5.741197914730703 1.0898670942577797
-174.49235048678722 -5.751027219354524 1.0868232221242158
-173.99165507649514 -5.760750394119869 1.0837622365030457
-173.49095966620305 -5.770367014603025 1.0806842839648514
-172.990264255911 -5.779876656380289 1.0775895110802134
-172.48956884561892 -5.78927889502795 1.0744780644197158
-171.98887343532684 -5.798573306122303 1.0713500905539384
-171.48817802503476 -5.807759465239639 1.0682057360534642
-170.9874826147427 -5.816836947956251 1.0650451474888736
-170.48678720445062 -5.825805329848432 1.0618684714307474
-169.98609179415854 -5.834664186492473 1.0586758544496702
-169.4853963838665 -5.843413093464668 1.0554674431162194
-168.9847009735744 -5.852051626341309 1.0522433840009802
-168.48400556328232 -5.860579360698688 1.0490038236745334
-167.98331015299027 -5.868995872113098 1.04574890870746
-167.4826147426982 -5.877300736160832 1.0424787856703417
-166.9819193324061 -5.88549352841818 1.0391936011337597
-166.48122392211405 -5.893573824461438 1.035893501668296
-165.98052851182197 -5.9015411998668945 1.0325786338445329
-165.4798331015299 -5.909395230210847 1.0292491442330496
-164.97913769123784 -5.917135491069583 1.0259051794044316
-164.47844228094576 -5.924761558019399 1.0225468859292572
-163.97774687065368 -5.932273006636584 1.0191744103781097
-163.47705146036162 -5.939669412497434 1.0157878993215688
-162.97635605006954 -5.946950351178238 1.0123874993302184
-162.47566063977746 -5.95411539825529 1.0089733569746402
-161.9749652294854 -5.961164129304882 1.0055456188254146
-161.47426981919332 -5.96809611990331 1.0021044314531222
-160.97357440890124 -5.974910945626861 0.9986499414283462
-160.4728789986092 -5.981608182051829 0.9951822953216681
-159.9721835883171 -5.98818740475451 0.9917016397036685
-159.47148817802503 -5.994648189311192 0.9882081211449297
-158.97079276773297 -6.00099011129817 0.9847018862160358
-158.4700973574409 -6.007212746291735 0.981183081487563
-157.9694019471488 -6.013315669868181 0.9776518535300961
-157.46870653685676 -6.019298457603801 0.9741083489142167
-156.96801112656468 -6.0251606850748844 0.9705527142105063
-156.4673157162726 -6.030901927857727 0.9669850959895462
-155.96662030598054 -6.0365217615286175 0.9634056408219197
-155.46592489568846 -6.042019761663854 0.9598144952782056
-154.96522948539638 -6.047395503839724 0.9562118059289854
-154.46453407510432 -6.052648563632521 0.952597719344843
-153.96383866481224 -6.05777851661854 0.9489723820963593
-153.46314325452016 -6.06278493837407 0.9453359407541154
-152.9624478442281 -6.067667404475404 0.9416885418886939
-152.46175243393603 -6.072425490498839 0.9380303320706752
-151.96105702364395 -6.077058772020662 0.9343614578706408
-151.4603616133519 -6.081566824617166 0.9306820658591731
-150.9596662030598 -6.085949223864648 0.9269923026068535
-150.45897079276773 -6.090205545339393 0.9232923146842634
-149.95827538247568 -6.094335364617702 0.9195822486619861
-149.4575799721836 -6.098338257275861 0.9158622511105995
-148.9568845618915 -6.102213798890166 0.9121324686006885
-148.45618915159943 -6.105961565036909 0.9083930477028338
-147.95549374130738 -6.109581131292382 0.904644134987615
-147.4547983310153 -6.113072073232876 0.9008858770256171
-146.95410292072324 -6.116433966434685 0.8971184203874206
-146.45340751043116 -6.119666386474101 0.8933419116436053
-145.95271210013908 -6.122768908927418 0.8895564973647535
-145.452016689847 -6.125741109370926 0.8857623241214493
-144.95132127955495 -6.128582563380919 0.8819595384842714
-144.45062586926286 -6.1312928465336896 0.8781482870238023
-143.94993045897078 -6.133871534405529 0.8743287163106234
-143.44923504867873 -6.136318202572732 0.8705009729153169
-142.94853963838665 -6.1386324266115855 0.8666652034084653
-142.44784422809457 -6.140813782098389 0.8628215543606482
-141.9471488178025 -6.142861844609433 0.8589701723424471
-141.44645340751043 -6.144776189721008 0.8551112039244452
-140.94575799721835 -6.1465563930094085 0.8512447956772221
-140.44506258692627 -6.148202030050925 0.847371094171362
-139.94436717663422 -6.14971267642185 0.8434902459774464
-139.44367176634213 -6.151087907698478 0.8396023976660548
-138.94297635605005 -6.152327299457099 0.8357076958077706
-138.442280945758 -6.153430427274008 0.8318062869731725
-137.94158553546592 -6.154396866725496 0.8278983177328455
-137.44089012517384 -6.155226193387854 0.8239839346573702
-136.94019471488178 -6.15591798283738 0.820063284317328
-136.4394993045897 -6.156471810650358 0.8161365132832986
-135.93880389429762 -6.156887252403089 0.812203768125867
-135.43810848400557 -6.157163883671861 0.808265195415612
-134.9374130737135 -6.157301280032966 0.8043209417231169
-134.4367176634214 -6.157299017062699 0.800371153618962
-133.93602225312935 -6.157156670337351 0.7964159776737308
-133.43532684283727 -6.156873815433214 0.7924555604580038
-132.9346314325452 -6.1564500279265815 0.7884900485423624
-132.43393602225314 -6.155884883393744 0.784519588497388
-131.93324061196105 -6.155177957410998 0.780544326893663
-131.43254520166897 -6.154328825554633 0.776564410301768
-130.93184979137692 -6.15333706340094 0.7725799852922862
-130.43115438108484 -6.152202246526215 0.7685911984357964
-129.93045897079276 -6.150923950506746 0.7645981963028844
-129.4297635605007 -6.149501750918833 0.7606011254641282
-128.92906815020862 -6.147935223338759 0.7566001324901092
-128.42837273991654 -6.146223943342824 0.7525953639514124
-127.92767732962449 -6.144367486507319 0.7485869664186183
-127.4269819193324 -6.142365428408533 0.7445750864623059
-126.92628650904032 -6.140217344622762 0.7405598706530582
-126.42559109874827 -6.137922810726296 0.7365414655614585
-125.92489568845619 -6.13548140229543 0.7325200177580856
-125.42420027816411 -6.132892694906456 0.7284956738135228
-124.92350486787205 -6.130156264135665 0.7244685802983514
-124.42280945757997 -6.127271685559349 0.7204388837831529
-123.92211404728789 -6.124238534753801 0.7164067308385124
-123.42141863699584 -6.121056387295316 0.7123722680350041
-122.92072322670376 -6.117724818760183 0.7083356419432149
-122.42002781641168 -6.1142434047246965 0.7042969991337235
-121.91933240611961 -6.11061172076515 0.7002564861771167
-121.41863699582754 -6.106829342457831 0.6962142496439706
-120.91794158553546 -6.102895845379039 0.6921704361048694
-120.41724617524339 -6.098810805105061 0.6881251921303927
-119.91655076495132 -6.094573797212192 0.6840786642911229
-119.41585535465924 -6.090184397276725 0.680030999157644
-118.91515994436718 -6.085642180874949 0.6759823433005366
-118.41446453407511 -6.0809467235831605 0.6719328432903796
-117.91376912378303 -6.07609760097765 0.6678826456977579
-117.41307371349096 -6.071094388634709 0.6638318970932521
-116.91237830319889 -6.065936662130633 0.6597807440474409
-116.41168289290681 -6.060623997041713 0.6557293331309094
-115.91098748261474 -6.05515596894424 0.6516778109142382
-115.41029207232268 -6.049532153414505 0.6476263239680112
-114.9095966620306 -6.0437521260288065 0.6435750188628057
-114.40890125173853 -6.037815462363435 0.6395240421692056
-113.90820584144646 -6.031721737994677 0.6354735404577915
-113.40751043115438 -6.0254705284988335 0.6314236602991458
-112.90681502086231 -6.01906140945219 0.6273745482638508
-112.40611961057024 -6.012493956431045 0.623326350922487
-111.90542420027816 -6.005767745011687 0.6192792148456369
-111.4047287899861 -5.998882350770407 0.6152332866038809
-110.90403337969401 -5.991837349283504 0.6111887127678005
-110.40333796940195 -5.984632316127264 0.6071456399079799
-109.90264255910988 -5.977266826877982 0.6031042145949977
-109.4019471488178 -5.96974045711195 0.5990645833994365
-108.90125173852573 -5.962052782405463 0.5950268928918793
-108.40055632823366 -5.954203378334809 0.5909912896429058
-107.89986091794158 -5.946191820476284 0.5869579202230967
-107.39916550764951 -5.938017684406177 0.5829269312030368
-106.89847009735745 -5.929680545700787 0.578898469153306
-106.39777468706536 -5.921179979936399 0.5748726806444838
-105.8970792767733 -5.9125155626893084 0.5708497122471597
-105.39638386648123 -5.903686869535809 0.5668297105319046
-104.89568845618915 -5.894693476052193 0.562812822069305
-104.39499304589708 -5.885534957814751 0.5587991934299436
-103.89429763560501 -5.876210890399777 0.5547889711844024
-103.39360222531293 -5.866720849383562 0.5507823019032622
-102.89290681502086 -5.857064410342401 0.546779332157099
-102.3922114047288 -5.847241148852583 0.542780208516504
-101.89151599443672 -5.837250640490404 0.5387850775520516
-101.39082058414465 -5.827092460832155 0.5347940858343295
-100.89012517385257 -5.816766185454129 0.5308073799339138
-100.3894297635605 -5.8062713899326175 0.5268251064213859
-99.88873435326843 -5.795607649843912 0.5228474118673326
-99.38803894297635 -5.784774540764308 0.5188744428423301
-98.88734353268428 -5.773771638270095 0.514906345916965
-98.38664812239222 -5.762598517937569 0.5109432676618163
-97.88595271210013 -5.751254755343018 0.5069853546474635
-97.38525730180807 -5.739739926062738 0.5030327534444917
-96.884561891516 -5.7280536056730185 0.49908561062348145
-96.38386648122392 -5.716195369750153 0.4951440727550124
-95.88317107093185 -5.704164793870439 0.4912082864096704
-95.38247566063978 -5.691961453610161 0.4872783981580343
-94.8817802503477 -5.679584924545615 0.483354554570682
-94.38108484005564 -5.667034782253096 0.479436902218202
-93.88038942976357 -5.654310602308894 0.47552558767117314
-93.37969401947149 -5.6414119602893 0.4716207575001742
-92.87899860917942 -5.628338431770607 0.4677225582757919
-92.37830319888734 -5.615089592329111 0.4638311365686033
-91.87760778859527 -5.601665017541102 0.4599466389491943
-91.3769123783032 -5.588064282982869 0.45606921198814365
-90.87621696801112 -5.574286964230712 0.45219900225603016
-90.37552155771905 -5.560332636860917 0.44833615632344326
-89.87482614742699 -5.546200876449779 0.44448082076095907
-89.3741307371349 -5.531891258573593 0.4406331421391573
-88.87343532684284 -5.517403358808645 0.43679326702862553
-88.37273991655077 -5.502736752731235 0.43296134199994174
-87.87204450625869 -5.48789101591765 0.42913751362368735
-87.37134909596662 -5.4728657239441825 0.4253219284704438
-86.87065368567455 -5.4576604523871275 0.421514733110797
-86.36995827538247 -5.4422747768227815 0.4177160741153195
-85.8692628650904 -5.426708272827425 0.41392609805460256
-85.36856745479834 -5.410960515977361 0.4101449514992249
-84.86787204450626 -5.395031081848878 0.4063727810197627
-84.36717663421419 -5.3789195460182695 0.4026097331868045
-83.86648122392211 -5.362625484061827 0.3988559545709308
-83.36578581363004 -5.3461484715558445 0.3951115917427187
-82.86509040333797 -5.329488084076613 0.39137679127275404
-82.36439499304589 -5.3126438972004255 0.3876516997316183
-81.86369958275382 -5.295615486503574 0.38393646368988843
-81.36300417246176 -5.278402427562349 0.38023122971815215
-80.86230876216968 -5.261004295953051 0.37653614438698557
-80.36161335187761 -5.243420667251965 0.37285135426697724
-79.86091794158554 -5.225651117035381 0.36917700592870417
-79.36022253129346 -5.2076952208796 0.3655132459427469
-78.85952712100139 -5.189552554360912 0.36186022087968694
-78.35883171070932 -5.171222693055604 0.35821807731011013
-77.85813630041724 -5.152705212539974 0.35458696180459526
-77.35744089012518 -5.133999688390311 0.35096702093372556
-76.85674547983311 -5.115105696182914 0.34735840126807804
-76.35605006954103 -5.096022811494064 0.3437612493782395
-75.85535465924896 -5.076750609900067 0.340175711834786
-75.35465924895689 -5.057288666977204 0.33660193520830706
-74.85396383866481 -5.037636558301772 0.33304006606937875
-74.35326842837274 -5.017793859450064 0.3294902509885861
-73.85257301808066 -4.997760145998372 0.3259526365365034
-73.3518776077886 -4.9775349935229904 0.32242736928372195
-72.85118219749653 -4.957117977600209 0.31891459580081516
-72.35048678720445 -4.936508673806319 0.3154144626583689
-71.84979137691238 -4.915706657717617 0.3119271164269647
-71.34909596662031 -4.894711504910395 0.3084527036771857
-70.84840055632823 -4.873522790960941 0.30499137097960805
-70.34770514603616 -4.852140091445548 0.3015432649048194
-69.8470097357441 -4.830562981940517 0.29810853202339593
-69.34631432545201 -4.808791038022131 0.2946873189059217
-68.84561891515995 -4.786823835266688 0.29127977212298084
-68.34492350486788 -4.764660949250475 0.287886038245153
-67.8442280945758 -4.74230195554979 0.284506263843017
-67.34353268428373 -4.719746429740923 0.28114059548715875
-66.84283727399166 -4.696993947400168 0.277789179748157
-66.34214186369958 -4.6740440841038104 0.2744521631965958
-65.84144645340751 -4.650896415428154 0.2711296924030523
-65.34075104311543 -4.627550516949485 0.26782191393811317
-64.84005563282336 -4.604005964244093 0.2645289743723581
-64.3393602225313 -4.580262332888278 0.2612510202763668
-63.838664812239216 -4.556319198458329 0.2579881982207234
-63.33796940194715 -4.532176136530534 0.25474065477601104
-62.83727399165508 -4.507832722681194 0.2515085365128059
-62.336578581363 -4.483288532486595 0.248291990001693
-61.83588317107093 -4.45854314152303 0.24509116181325374
-61.335187760778865 -4.433596125366794 0.24190619851807227
-60.834492350486784 -4.408447059594179 0.2387372466867247
-60.333796940194716 -4.383095519781476 0.23558445288979601
-59.83310152990265 -4.357541081504978 0.2324479636978668
-59.33240611961057 -4.331783320340982 0.22932792568152116
-58.8317107093185 -4.305821811865767 0.22622448541133433
-58.33101529902643 -4.279656131655646 0.22313778945789486
-57.83031988873435 -4.253285855286894 0.22006798439178155
-57.329624478442284 -4.226710558335808 0.2170152167835776
-56.82892906815022 -4.199929816378688 0.21397963320386182
-56.328233657858135 -4.172943204991816 0.21096138022321742
-55.82753824756607 -4.145750299751489 0.20796060441222763
-55.326842837273986 -4.118350676234002 0.20497745234146947
-54.82614742698192 -4.090743910015643 0.20201207058152792
-54.32545201668985 -4.06292957667271 0.19906460570298268
-53.82475660639777 -4.034907251781489 0.19613520427641873
-53.3240611961057 -4.006676510918277 0.19322401287241575
-52.823365785813635 -3.9782369296593654 0.19033117806155253
-52.322670375521554 -3.949588083581043 0.18745684641441673
-51.82197496522949 -3.92072954825961 0.1846011645015836
-51.321279554937405 -3.891660899271349 0.1817642788936381
-50.82058414464535 -3.8623817121925654 0.17894633616116262
-50.31988873435327 -3.8328915625995403 0.17614748287473592
-49.81919332406119 -3.803190026068565 0.17336786560494566
-49.318497913769136 -3.7732766781759413 0.17060763092236264
-48.817802503477054 -3.743151094497959 0.16786692539757808
-48.31710709318497 -3.7128128506109057 0.165145895601169
-47.81641168289292 -3.68226152209108 0.16244468810372037
-47.31571627260084 -3.651496684514772 0.1597634494758119
-46.81502086230876 -3.6205179134582703 0.15710232628802145
-46.3143254520167 -3.5893247844978724 0.1544614651109376
-45.81363004172462 -3.5579168732098676 0.15184101251513826
-45.31293463143254 -3.5262937551705527 0.14924111507120574
-44.81223922114049 -3.494455005956217 0.14666191934971973
-44.311543810848406 -3.4624002011431543 0.14410357192126166
-43.810848400556324 -3.43012891630765 0.14156621935641833
-43.31015299026427 -3.3976407270260065 0.13905000822576763
-42.80945757997219 -3.3649352088745186 0.13655508509988568
-42.30876216968011 -3.3320119374294617 0.13408159654936636
-41.808066759388026 -3.298870488267145 0.13162968914478224
-41.30737134909597 -3.265510436963858 0.12919950945671832
-40.80667593880389 -3.231931359095885 0.1267912040557525
-40.30598052851181 -3.1981328302395227 0.12440491951247334
-39.80528511821976 -3.164114425971075 0.12204080239745518
-39.304589707927676 -3.1298757218668136 0.1196989992812848
-38.803894297635594 -3.095416293503046 0.11737965673453832
-38.30319888734354 -3.0607357164560636 0.11508292132780429
-37.80250347705146 -3.025833566302147 0.11280893963166061
-37.30180806675938 -2.9907094186176 0.11055785821668518
-36.801112656467325 -2.955362848978716 0.10832982365346833
-36.30041724617524 -2.919793432961775 0.10612498251258262
-35.79972183588316 -2.884000746143087 0.10394348136461662
-35.29902642559111 -2.847984364098936 0.10178546678014821
-34.79833101529903 -2.8117438624056064 0.09965108532975708
-34.297635605006946 -2.7752788166394016 0.09754048358403178
-33.79694019471489 -2.7385888023766167 0.09545380811354665
-33.29624478442281 -2.7016733951935326 0.09339120548889024
-32.79554937413073 -2.664532170666442 0.0913528222806369
-32.294853963838676 -2.6271647043716566 0.08933880505937519
-31.794158553546595 -2.589570571885444 0.08734930039567945
-31.293463143254513 -2.55174934878411 0.08538445486013646
-30.79276773296246 -2.5137006106439532 0.08344441502332589
-30.29207232267038 -2.475423933041247 0.08152932745583097
-29.791376912378297 -2.4369188915522955 0.07963933872822959
-29.290681502086244 -2.3981850617534004 0.07777459541111209
-28.789986091794162 -2.3592220192208355 0.0759352440750457
-28.28929068150208 -2.3200293395308975 0.07412143129062787
-27.788595271210028 -2.2806065982598938 0.0723333036284276
-27.287899860917946 -2.2409533709840996 0.07057100765903168
-26.787204450625865 -2.2010692332798154 0.06883468995302156
-26.28650904033381 -2.1609537607233342 0.06712449708098223
-25.78581363004173 -2.1206065288909457 0.06544057561348982
-25.28511821974965 -2.0800271133589394 0.06378307212112755
-24.784422809457595 -2.0392150897036174 0.062152133174476876
-24.283727399165514 -1.9981700335012655 0.06054790534412102
-23.783031988873432 -1.9568915203281703 0.058970535200643215
-23.28233657858135 -1.9153791257606387 0.057420169314614244
-22.781641168289298 -1.8736324253749534 0.05589695425663155
-22.280945757997216 -1.831650994747404 0.05440103659726947
-21.780250347705135 -1.7894344094542995 0.05293256290710413
-21.27955493741308 -1.7469822450719137 0.051491679756724085
-20.778859527121 -1.7042940771765467 0.050078533716709006
-20.27816411682892 -1.66136948134449 0.04869327135764212
-19.777468706536865 -1.6182080331520383 0.04733603925009955
-19.276773296244784 -1.5748093081754797 0.046006983964669845
-18.776077885952702 -1.5311728819911161 0.04470625207193091
-18.27538247566065 -1.4872983301752265 0.04343399014246596
-17.774687065368568 -1.4431852283041093 0.04219034474685468
-17.273991655076486 -1.3988331519540596 0.04097546245567851
-16.773296244784433 -1.3542416767013703 0.039789489839520686
-16.27260083449235 -1.3094103781223276 0.03863257346896265
-15.77190542420027 -1.2643388317932318 0.037504859914589406
-15.271210013908217 -1.2190266132903689 0.0364064957469753
-14.770514603616135 -1.173473298190039 0.03533762753670178
-14.269819193324054 -1.1276784620685214 0.03429840185436095
-13.769123783032 -1.0816416805021267 0.03328896527052183
-13.268428372739919 -1.0353625290671304 0.03230946435577475
-12.767732962447838 -0.9888405833398293 0.03136004568070294
-12.267037552155784 -0.9420754188965288 0.03044085581587541
-11.766342141863703 -0.8950666113135026 0.029552041331882495
-11.265646731571621 -0.8478137361670581 0.028693748799307417
-10.764951321279568 -0.8003163690334796 0.027866124788731628
-10.264255910987487 -0.7525740854890566 0.027069315870731248
-9.763560500695405 -0.7045864611100876 0.02630346861589128
-9.262865090403352 -0.6563530714728694 0.025568729594796724
-8.76216968011127 -0.6078734921536826 0.024865245378018375
-8.261474269819189 -0.5591472987288275 0.02419316253615189
