Polar data for 2 at Re = 242857.14285714287
Alpha (deg) Cl Cd
-180.0 -9.816219107127717 1.1306325765873264
-179.49930458970792 -9.826609051200643 1.1279187095704295
-178.99860917941587 -9.83682446955256 1.1251859361066476
-178.49791376912378 -9.846864997178034 1.1224343960002454
-177.9972183588317 -9.856730269071612 1.119664229055491
-177.49652294853965 -9.86641992022786 1.1168755750766481
-176.99582753824757 -9.87593358564133 1.114068573867984
-176.4951321279555 -9.885270900306587 1.1112433652337643
-175.99443671766343 -9.894431499218186 1.1084000889782553
-175.49374130737135 -9.903415017370685 1.1055388849057228
-174.99304589707927 -9.912221089758642 1.1026598928204339
-174.49235048678722 -9.92084935137662 1.0997632525266534
-173.99165507649514 -9.929299437219171 1.0968491038286479
-173.49095966620305 -9.93757098228086 1.0939175865306832
-172.990264255911 -9.945663621556236 1.0909688404370248
-172.48956884561892 -9.953576990039865 1.088003005351941
-171.98887343532684 -9.961310722726308 1.0850202210796953
-171.48817802503476 -9.968864454610113 1.0820206274245556
-170.9874826147427 -9.97623782068585 1.0790043641907883
-170.48678720445062 -9.983430455948065 1.0759715711826556
-169.98609179415854 -9.990441995391325 1.072922388204428
-169.4853963838665 -9.997272074010189 1.069856955060369
-168.9847009735744 -10.00392032679921 1.0667754115547472
-168.48400556328232 -10.010386388752949 1.0636778974918253
-167.98331015299027 -10.016669894865966 1.0605645526758727
-167.4826147426982 -10.022770480132817 1.057435516911154
-166.9819193324061 -10.028687779548065 1.0542909300019334
-166.48122392211405 -10.03442142810626 1.0511309317524804
-165.98052851182197 -10.039971060801967 1.0479556619670582
-165.4798331015299 -10.045336312629741 1.0447652604499347
-164.97913769123784 -10.050516818584141 1.0415598670053747
-164.47844228094576 -10.05551221365973 1.0383396214376461
-163.97774687065368 -10.06032213285106 1.0351046635510122
-163.47705146036162 -10.06494621115269 1.0318551331497405
-162.97635605006954 -10.069384083559182 1.028591170038099
-162.47566063977746 -10.073635385065092 1.0253129140203507
-161.9749652294854 -10.077699750664982 1.0220205049007636
-161.47426981919332 -10.081576815353404 1.0187140824836016
-160.97357440890124 -10.08526621412492 1.0153937865731344
-160.4728789986092 -10.08876758197409 1.0120597569736243
-159.9721835883171 -10.09208055389547 1.0087121334893399
-159.47148817802503 -10.09520476488362 1.0053510559245453
-158.97079276773297 -10.098139849933094 1.0019766640835102
-158.4700973574409 -10.100885444038454 0.998589097770495
-157.9694019471488 -10.103441182194262 0.9951884967897702
-157.46870653685676 -10.105806699395067 0.9917750009455999
-156.96801112656468 -10.10798163063544 0.988348750042251
-156.4673157162726 -10.109965610909926 0.9849098838839903
-155.96662030598054 -10.111758275213093 0.9814585422750828
-155.46592489568846 -10.113359258539495 0.9779948650197936
-154.96522948539638 -10.11476819588369 0.9745189919223904
-154.46453407510432 -10.115984722240238 0.9710310627871375
-153.96383866481224 -10.117008472603697 0.9675312174183033
-153.46314325452016 -10.117839081968626 0.9640195956201529
-152.9624478442281 -10.118476185329584 0.9604963371969524
-152.46175243393603 -10.118919417681125 0.9569615819529658
-151.96105702364395 -10.119168414017816 0.9534154696924635
-151.4603616133519 -10.119222809334204 0.9498581402197079
-150.9596662030598 -10.119082238624857 0.9462897333389668
-150.45897079276773 -10.11874633688433 0.9427103888545061
-149.95827538247568 -10.118214739107177 0.9391202465705908
-149.4575799721836 -10.117487080287967 0.9355194462914869
-148.9568845618915 -10.116562995421248 0.9319081278214612
-148.45618915159943 -10.115442119501582 0.9282864309647814
-147.95549374130738 -10.114124087523528 0.9246544955257108
-147.4547983310153 -10.112608534481645 0.921012461308518
-146.95410292072324 -10.110895095370491 0.9173604681174663
-146.45340751043116 -10.10898340518462 0.9136986557568234
-145.95271210013908 -10.106873098918596 0.9100271640308544
-145.452016689847 -10.104563811566978 0.9063461327438278
-144.95132127955495 -10.102055178124319 0.902655701700007
-144.45062586926286 -10.099346833585184 0.8989560107036578
-143.94993045897078 -10.096438412944124 0.8952471995590481
-143.44923504867873 -10.093329551195701 0.8915294080704446
-142.94853963838665 -10.090019883334476 0.8878027760421123
-142.44784422809457 -10.086509044355001 0.8840674432783164
-141.9471488178025 -10.082796669251843 0.8803235495833228
-141.44645340751043 -10.078882393019551 0.8765712347614001
-140.94575799721835 -10.074765850652689 0.8728106386168106
-140.44506258692627 -10.070446677145817 0.8690419009538239
-139.94436717663422 -10.065924507493488 0.8652651615767042
-139.44367176634213 -10.061198976690264 0.8614805602897191
-138.94297635605005 -10.056269719730704 0.8576882368971328
-138.442280945758 -10.051136371609363 0.8538883312032113
-137.94158553546592 -10.045798567320803 0.8500809830122231
-137.44089012517384 -10.040255941859577 0.8462663321284298
-136.94019471488178 -10.034508130220248 0.8424445183561045
-136.4394993045897 -10.028554767397377 0.8386156814995058
-135.93880389429762 -10.022395488385515 0.8347799613629043
-135.43810848400557 -10.016029928179227 0.8309374977505641
-134.9374130737135 -10.009457721773066 0.8270884304667521
-134.4367176634214 -10.002678504161592 0.823232899315735
-133.93602225312935 -9.995691910339369 0.8193710441017779
-133.43532684283727 -9.988497575300947 0.8155030046291467
-132.9346314325452 -9.98109513404089 0.8116289207021075
-132.43393602225314 -9.973484221553752 0.8077489321249278
-131.93324061196105 -9.965664472834092 0.8038631787018711
-131.43254520166897 -9.957635522876476 0.7999718002372058
-130.93184979137692 -9.949397006675452 0.796074936535198
-130.43115438108484 -9.940948559225587 0.79217272740011
-129.93045897079276 -9.932289815521433 0.7882653126362149
-129.4297635605007 -9.923420410557547 0.7843528320477715
-128.92906815020862 -9.914339979328496 0.7804354254390502
-128.42837273991654 -9.905048156828832 0.7765132326143152
-127.92767732962449 -9.895544578053116 0.772586393377835
-127.4269819193324 -9.885828877995902 0.7686550475338711
-126.92628650904032 -9.875900691651752 0.7647193348866941
-126.42559109874827 -9.865759654015228 0.7607793952405679
-125.92489568845619 -9.855405400080882 0.7568353683997577
-125.42420027816411 -9.84483756484327 0.7528873941685339
-124.92350486787205 -9.834055783296964 0.7489356123511561
-124.42280945757997 -9.823059690436507 0.7449801627518957
-123.92211404728789 -9.811848921256468 0.7410211851750159
-123.42141863699584 -9.800423110751398 0.7370588194247853
-122.92072322670376 -9.78878189391586 0.7330932053054664
-122.42002781641168 -9.77692490574441 0.7291244826213277
-121.91933240611961 -9.764851781231608 0.7251527911766369
-121.41863699582754 -9.752562155372011 0.7211782707756555
-120.91794158553546 -9.740055663160181 0.7172010612226531
-120.41724617524339 -9.727331939590671 0.7132213023218938
-119.91655076495132 -9.71439061965804 0.7092391338776454
-119.41585535465924 -9.701231338356852 0.7052546956941728
-118.91515994436718 -9.68785373068166 0.701268127575742
-118.41446453407511 -9.674257431627023 0.6972795693266207
-117.91376912378303 -9.6604420761875 0.6932891607510732
-117.41307371349096 -9.646407299357653 0.6892970416533653
-116.91237830319889 -9.632152736132035 0.6853033518377638
-116.41168289290681 -9.61767802150521 0.6813082311085348
-115.91098748261474 -9.602982790471728 0.6773118192699459
-115.41029207232268 -9.588066678026152 0.6733142561262622
-114.9095966620306 -9.572929319163045 0.669315681481746
-114.40890125173853 -9.557570348876958 0.6653162351406687
-113.90820584144646 -9.541989402162455 0.6613160569072944
-113.40751043115438 -9.526186114014088 0.6573152865858873
-112.90681502086231 -9.510160119426423 0.6533140639807178
-112.40611961057024 -9.493911053394012 0.6493125288960464
-111.90542420027816 -9.477438550911415 0.6453108211361454
-111.4047287899861 -9.460742246973195 0.6413090805052761
-110.90403337969401 -9.443821776573904 0.6373074468077056
-110.40333796940195 -9.426676774708103 0.6333060598476996
-109.90264255910988 -9.409306876370351 0.629305059429526
-109.4019471488178 -9.391711716555207 0.6253045853574488
-108.90125173852573 -9.373890930257229 0.6213047774357376
-108.40055632823366 -9.355844152470972 0.6173057754686557
-107.89986091794158 -9.337571018190996 0.6133077192604663
-107.39916550764951 -9.319071162411865 0.6093107486154425
-106.89847009735745 -9.300344220128128 0.605315003337844
-106.39777468706536 -9.281389826334348 0.6013206232319377
-105.8970792767733 -9.262207616025087 0.5973277481019956
-105.39638386648123 -9.242797224194902 0.5933365177522758
-104.89568845618915 -9.223158285838345 0.5893470719870504
-104.39499304589708 -9.203290435949977 0.5853595506105818
-103.89429763560501 -9.183193309524363 0.5813740934271385
-103.39360222531293 -9.162866541556053 0.5773908402409857
-102.89290681502086 -9.142309767039606 0.5734099308563876
-102.3922114047288 -9.12152262096959 0.5694315050776126
-101.89151599443672 -9.10050473834055 0.565455702708926
-101.39082058414465 -9.079255754147058 0.5614826635545953
-100.89012517385257 -9.05777530338366 0.5575125274188821
-100.3894297635605 -9.03606302104492 0.5535454341060577
-99.88873435326843 -9.014118542125399 0.5495815234203845
-99.38803894297635 -8.991941501619648 0.5456209351661327
-98.88734353268428 -8.96953153452223 0.5416638091475632
-98.38664812239222 -8.94688827582771 0.5377102851689453
-97.88595271210013 -8.924011360530633 0.533760503034544
-97.38525730180807 -8.900900423625568 0.5298146025486281
-96.884561891516 -8.877555100107067 0.5258727235154608
-96.38386648122392 -8.853975024969689 0.5219350057393062
-95.88317107093185 -8.830159833208 0.5180015890244338
-95.38247566063978 -8.806109159816545 0.5140726131751105
-94.8817802503477 -8.78182263978989 0.5101482179955978
-94.38108484005564 -8.7572999081226 0.5062285432901652
-93.88038942976357 -8.732540599809223 0.5023137288630786
-93.37969401947149 -8.707544349844323 0.49840391451860117
-92.87899860917942 -8.682310793222452 0.49449924006100526
-92.37830319888734 -8.656839564938178 0.4905998452945514
-91.87760778859527 -8.63113029998605 0.48670587002350735
-91.3769123783032 -8.60518263336063 0.4828174540521399
-90.87621696801112 -8.57899620005648 0.4789347371847132
-90.37552155771905 -8.552570635068154 0.47505785922549676
-89.87482614742699 -8.525905573390213 0.4711869599787512
-89.3741307371349 -8.499000650017212 0.4673221792487469
-88.87343532684284 -8.471855499943711 0.46346365683974805
-88.37273991655077 -8.44446975816427 0.45961153255602233
-87.87204450625869 -8.416843059673447 0.4557659462018366
-87.37134909596662 -8.388975039465794 0.45192703758145053
-86.87065368567455 -8.360865332535884 0.448094946499139
-86.36995827538247 -8.33251357387826 0.4442698127591617
-85.8692628650904 -8.303919398487487 0.4404517761657873
-85.36856745479834 -8.275082441358123 0.4366409765232843
-84.86787204450626 -8.246002337484732 0.43283755363591253
-84.36717663421419 -8.216678721861857 0.4290416473079414
-83.86648122392211 -8.187111229484074 0.4252533973436405
-83.36578581363004 -8.157299495345935 0.4214729435472712
-82.86509040333797 -8.127243154441988 0.4177004257230987
-82.36439499304589 -8.096941841766807 0.41393598367539414
-81.86369958275382 -8.066395192314946 0.4101797572084182
-81.36300417246176 -8.035602841080951 0.40643188612644215
-80.86230876216968 -8.004564423059403 0.4026925102337257
-80.36161335187761 -7.973279573244838 0.39896176933454014
-79.86091794158554 -7.941747926631823 0.3952398032331523
-79.36022253129346 -7.909969118214928 0.39152675173382095
-78.85952712100139 -7.877942782988697 0.3878227546408201
-78.35883171070932 -7.8456685559476895 0.38412795175841125
-77.85813630041724 -7.8131460720864645 0.38044248289086474
-77.35744089012518 -7.780374966399592 0.37676648784244476
-76.85674547983311 -7.747354873881612 0.37310010641741104
-76.35605006954103 -7.714085429527092 0.3694434784200384
-75.85535465924896 -7.6805662683305975 0.3657967436545892
-75.35465924895689 -7.6467970252866735 0.3621600419253303
-74.85396383866481 -7.612777335389882 0.35853351303652675
-74.35326842837274 -7.578506833634794 0.35491729679244804
-73.85257301808066 -7.543985155015946 0.351311532997353
-73.3518776077886 -7.509211934527919 0.3477163614555174
-72.85118219749653 -7.474186807165257 0.3441319219711964
-72.35048678720445 -7.438909407922516 0.34055835434866494
-71.84979137691238 -7.403379371794266 0.33699579839218446
-71.34909596662031 -7.367596333775058 0.3334443939060245
-70.84840055632823 -7.331559928859448 0.3299042806944474
-70.34770514603616 -7.295269792042006 0.32637559856172266
-69.8470097357441 -7.258725558317284 0.3228584873121118
-69.34631432545201 -7.221926862679833 0.31935308674988433
-68.84561891515995 -7.184873340124216 0.31585953667930794
-68.34492350486788 -7.147564625645 0.3123779769046468
-67.8442280945758 -7.110000354236728 0.3089085472301624
-67.34353268428373 -7.072180160893971 0.3054513874601296
-66.84283727399166 -7.034103680611288 0.30200663739880546
-66.34214186369958 -6.9957705483832235 0.29857443685046386
-65.84144645340751 -6.957180399204354 0.29515492561936635
-65.34075104311543 -6.918332868069221 0.29174824350977974
-64.84005563282336 -6.879227589972391 0.2883545303259691
-64.3393602225313 -6.83986419990843 0.284973925872203
-63.838664812239216 -6.800242332871882 0.2816065699527465
-63.33796940194715 -6.760361623857307 0.2782526023718674
-62.83727399165508 -6.720221707859277 0.2749121629338271
-62.336578581363 -6.679822219872342 0.2715853914428951
-61.83588317107093 -6.63916279489105 0.26827242770333654
-61.335187760778865 -6.598243067909976 0.26497341151941994
-60.834492350486784 -6.557062673923674 0.26168848269540684
-60.333796940194716 -6.5156212479266955 0.2584177810355685
-59.83310152990265 -6.473918424913602 0.25516144634416466
-59.33240611961057 -6.431953839878961 0.25191961842546745
-58.8317107093185 -6.389727127817313 0.2486924370837384
-58.33101529902643 -6.347237923723235 0.2454800421232452
-57.83031988873435 -6.3044858625912745 0.24228257334825648
-57.329624478442284 -6.261470579415985 0.2391001705630355
-56.82892906815022 -6.218191709191942 0.23593297357184645
-56.328233657858135 -6.17464888691369 0.23278112217896058
-55.82753824756607 -6.130841747575786 0.22964475618864205
-55.326842837273986 -6.086769926172806 0.22652401540515504
-54.82614742698192 -6.042433057699288 0.22341903963276638
-54.32545201668985 -5.997830777149801 0.22032996867574023
-53.82475660639777 -5.952962719518901 0.21725694233834608
-53.3240611961057 -5.90782851980115 0.21420010042485077
-52.823365785813635 -5.86242781299109 0.21115958273951757
-52.322670375521554 -5.816760234083304 0.2081355290866133
-51.82197496522949 -5.770825418072338 0.20512807927040394
-51.321279554937405 -5.724622999952743 0.2021373730951545
-50.82058414464535 -5.678152614719089 0.19916355036513272
-50.31988873435327 -5.631413897365935 0.19620675088460365
-49.81919332406119 -5.584406482887825 0.19326711445783767
-49.318497913769136 -5.537130006279341 0.19034478088909274
-48.817802503477054 -5.489584102535019 0.187439889982641
-48.31710709318497 -5.441768406649423 0.18455258154274395
-47.81641168289292 -5.393682553617122 0.18168299537367466
-47.31571627260084 -5.345326178432664 0.17883127127969373
-46.81502086230876 -5.296698916090612 0.1759975490650671
-46.3143254520167 -5.247800401585518 0.17318196853406426
-45.81363004172462 -5.198630269911952 0.17038466949094938
-45.31293463143254 -5.149188156064458 0.16760579173998752
-44.81223922114049 -5.099473695037606 0.16484547508544284
-44.311543810848406 -5.049486521825951 0.16210385933158927
-43.810848400556324 -4.9992262714240425 0.159381084282683
-43.31015299026427 -4.948692578826456 0.15667728974299705
-42.80945757997219 -4.897885079027741 0.1539926155167956
-42.30876216968011 -4.8468034070224455 0.1513272014083446
-41.808066759388026 -4.795447197805142 0.14868118722190643
-41.30737134909597 -4.743816086370394 0.1460547127617577
-40.80667593880389 -4.691909707712739 0.14344791783215277
-40.30598052851181 -4.63972769682675 0.14086094223736118
-39.80528511821976 -4.587269688706993 0.13829392578165417
-39.304589707927676 -4.534535318348006 0.13574700826929414
-38.803894297635594 -4.481524220744362 0.1332203295045417
-38.30319888734354 -4.428236030890616 0.13071402929166992
-37.80250347705146 -4.374670383781318 0.1282282474349447
-37.30180806675938 -4.320826914411029 0.12576312373863024
-36.801112656467325 -4.26670525777433 0.12331879800699247
-36.30041724617524 -4.212305048865748 0.1208954100442991
-35.79972183588316 -4.157625922679845 0.11849309965481075
-35.29902642559111 -4.102667514211213 0.11611200664280047
-34.79833101529903 -4.047429458454371 0.11375227081253242
-34.297635605006946 -3.991911390403896 0.11141403196826899
-33.79694019471489 -3.936112945054351 0.10909742991428323
-33.29624478442281 -3.8800337574002732 0.1068026044548322
-32.79554937413073 -3.8236734624362363 0.10452969539419071
-32.294853963838676 -3.7670316951568132 0.1022788425366194
-31.794158553546595 -3.7101080905565205 0.10005018568638419
-31.293463143254513 -3.6529022836299525 0.0978438646477528
-30.79276773296246 -3.5954139093716684 0.09566001922499295
-30.29207232267038 -3.5376426027761987 0.09349878922237059
-29.791376912378297 -3.47958799883812 0.09136031444414633
-29.290681502086244 -3.421249732552006 0.08924473469459143
-28.789986091794162 -3.36262743891238 0.08715218977796829
-28.28929068150208 -3.303720752913815 0.08508281949855173
-27.788595271210028 -3.2445293095508916 0.08303676366059703
-27.287899860917946 -3.18505274381814 0.08101416206837192
-26.787204450625865 -3.12529069071012 0.07901515452614588
-26.28650904033381 -3.065242785221411 0.07703988083819197
-25.78581363004173 -3.0049086623465477 0.0750884808087619
-25.28511821974965 -2.944287957080096 0.07316109424212874
-24.784422809457595 -2.8833803044166366 0.07125786094256198
-24.283727399165514 -2.8221853393506926 0.06937892071432045
-23.783031988873432 -2.7607026968768302 0.06752441336167364
-23.28233657858135 -2.698932011989637 0.06569447868888573
-22.781641168289298 -2.6368729196836362 0.06388925650022975
-22.280945757997216 -2.5745250549534013 0.062108886599962776
-21.780250347705135 -2.5118880527934984 0.06035350879235607
-21.27955493741308 -2.448961548198472 0.058623262881675575
-20.778859527121 -2.385745176162878 0.05691828867218546
-20.27816411682892 -2.3222385716812965 0.05523872596815166
-19.777468706536865 -2.2584413697482653 0.05358471457383834
-19.276773296244784 -2.1943532053583503 0.051956394293520336
-18.776077885952702 -2.1299737135061036 0.050353904931454696
-18.27538247566065 -2.065302529186095 0.04877738629191092
-17.774687065368568 -2.0003392873928725 0.04722697817915672
-17.273991655076486 -1.9350836231209918 0.04570282039745094
-16.773296244784433 -1.8695351713650332 0.04420505275106662
-16.27260083449235 -1.8036935671195344 0.04273381504426793
-15.77190542420027 -1.7375584453790545 0.04128924708132614
-15.271210013908217 -1.6711294411381594 0.03987148866649831
-14.770514603616135 -1.6044061893914083 0.038480679604053936
-14.269819193324054 -1.537388325133353 0.037116959698264285
-13.769123783032 -1.4700754833585528 0.035780468753382866
-13.268428372739919 -1.4024672990615734 0.034471346573688055
-12.767732962447838 -1.334563407236967 0.03318973296344224
-12.267037552155784 -1.266363442879289 0.031935767726907816
-11.766342141863703 -1.1978670409831018 0.030709590668356046
-11.265646731571621 -1.1290738365429718 0.029511341592047546
-10.764951321279568 -1.0599834645534472 0.028341160302255364
-10.264255910987487 -0.9905955600090799 0.027199186603236558
-9.763560500695405 -0.9209097579044432 0.026085560299265953
-9.262865090403352 -0.850925693234089 0.025000421194607714
-8.76216968011127 -0.7806430009925727 0.023943909093522453
-8.261474269819189 -0.7100613161744569 0.02291616380028144
