Polar data for 2 at Re = 71428.57142857143
Alpha (deg) Cl Cd
-180.0 -4.527782670547884 0.6602164986963857
-179.49930458970792 -4.542062161752952 0.6587819012398493
-178.99860917941587 -4.5562618646290005 0.6573373153794191
-178.49791376912378 -4.570381154890532 0.6558828085834976
-177.9972183588317 -4.584419408252048 0.6544184483204871
-177.49652294853965 -4.598376000428051 0.6529443020587906
-176.99582753824757 -4.612250307133045 0.6514604372668089
-176.4951321279555 -4.6260417040815245 0.6499669214129455
-175.99443671766343 -4.639749566987996 0.6484638219656025
-175.49374130737135 -4.653373271566961 0.6469512063931813
-174.99304589707927 -4.666912193532918 0.6454291421640865
-174.49235048678722 -4.680365708600372 0.6438976967467176
-173.99165507649514 -4.693733192483823 0.6423569376094782
-173.49095966620305 -4.707014020897773 0.6408069322207701
-172.990264255911 -4.720207569556724 0.6392477480489966
-172.48956884561892 -4.733313214175175 0.6376794525625589
-171.98887343532684 -4.74633033046763 0.6361021132298599
-171.48817802503476 -4.759258294148591 0.6345157975193012
-170.9874826147427 -4.772096480932555 0.6329205728992864
-170.48678720445062 -4.784844266534029 0.631316506838216
-169.98609179415854 -4.797501026667512 0.629703666804494
-169.4853963838665 -4.810066137047506 0.6280821202665212
-168.9847009735744 -4.822538973388514 0.6264519346927009
-168.48400556328232 -4.834918911405032 0.6248131775514354
-167.98331015299027 -4.847205326811566 0.6231659163111263
-167.4826147426982 -4.859397595322618 0.6215102184401764
-166.9819193324061 -4.8714950926526885 0.6198461514069875
-166.48122392211405 -4.883497194516279 0.6181737826799631
-165.98052851182197 -4.89540327662789 0.616493179727504
-165.4798331015299 -4.907212714702025 0.6148044100180132
-164.97913769123784 -4.918924884453186 0.6131075410198923
-164.47844228094576 -4.9305391615958705 0.6114026402015449
-163.97774687065368 -4.9420549218445835 0.6096897750313723
-163.47705146036162 -4.953471540913827 0.6079690129777766
-162.97635605006954 -4.964788394518099 0.6062404215091608
-162.47566063977746 -4.976004858371902 0.6045040680939271
-161.9749652294854 -4.98712030818974 0.6027600202004777
-161.47426981919332 -4.998134119686116 0.6010083452972139
-160.97357440890124 -5.009045668575525 0.5992491108525391
-160.4728789986092 -5.019854330572473 0.5974823843348553
-159.9721835883171 -5.030559481391462 0.5957082332125658
-159.47148817802503 -5.041160496746991 0.5939267249540712
-158.97079276773297 -5.051656752353562 0.5921379270277742
-158.4700973574409 -5.062047623925679 0.5903419069020779
-157.9694019471488 -5.072332487177842 0.5885387320453837
-157.46870653685676 -5.082510717824551 0.586728469926094
-156.96801112656468 -5.0925816915803095 0.5849111880126117
-156.4673157162726 -5.10254478415962 0.5830869537733379
-155.96662030598054 -5.112399371276979 0.5812558346766772
-155.46592489568846 -5.122144828646892 0.5794178981910294
-154.96522948539638 -5.131780531983862 0.5775732117847974
-154.46453407510432 -5.141305857002386 0.575721842926384
-153.96383866481224 -5.150720179416971 0.5738638590841911
-153.46314325452016 -5.160022874942114 0.5719993277266222
-152.9624478442281 -5.169213319292316 0.5701283163220783
-152.46175243393603 -5.178290888182085 0.5682508923389613
-151.96105702364395 -5.187254957325916 0.5663671232456742
-151.4603616133519 -5.19610490243831 0.5644770765106197
-150.9596662030598 -5.204840099233774 0.5625808196021995
-150.45897079276773 -5.2134599234268055 0.5606784199888155
-149.95827538247568 -5.221963750731906 0.558769945138871
-149.4575799721836 -5.230350956863582 0.556855462520768
-148.9568845618915 -5.23862091753633 0.5549350396029076
-148.45618915159943 -5.24677300846465 0.5530087438536944
-147.95549374130738 -5.254806605363047 0.5510766427415277
-147.4547983310153 -5.262721083946024 0.5491388037348122
-146.95410292072324 -5.270515819928079 0.5471952943019502
-146.45340751043116 -5.278190189023714 0.5452461819113421
-145.95271210013908 -5.285743566947433 0.5432915340313906
-145.452016689847 -5.293175329413733 0.5413314181304996
-144.95132127955495 -5.300484852137123 0.5393659016770704
-144.45062586926286 -5.307671510832097 0.5373950521395052
-143.94993045897078 -5.314734681213161 0.5354189369862059
-143.44923504867873 -5.321673738994813 0.5334376236855758
-142.94853963838665 -5.328488059891556 0.5314511797060173
-142.44784422809457 -5.335177019617891 0.5294596725159315
-141.9471488178025 -5.341739993888325 0.5274631695837209
-141.44645340751043 -5.348176358417353 0.5254617383777873
-140.94575799721835 -5.3544854889194795 0.5234554463665346
-140.44506258692627 -5.3606667611092025 0.5214443610183648
-139.94436717663422 -5.366719550701028 0.5194285498016789
-139.44367176634213 -5.372643233409454 0.5174080801848806
-138.94297635605005 -5.378437184948983 0.5153830196363707
-138.442280945758 -5.38410078103412 0.5133534356245528
-137.94158553546592 -5.389633397379362 0.5113193956178286
-137.44089012517384 -5.395034409699213 0.5092809670846004
-136.94019471488178 -5.4003031937081705 0.5072382174932706
-136.4394993045897 -5.405439125120743 0.5051912143122417
-135.93880389429762 -5.410441579651428 0.5031400250099156
-135.43810848400557 -5.415309933014726 0.5010847170546948
-134.9374130737135 -5.420043560925141 0.49902535791498087
-134.4367176634214 -5.424641839097173 0.49696201505917653
-133.93602225312935 -5.429104143245323 0.49489475595568605
-133.43532684283727 -5.433429849084097 0.4928236480729083
-132.9346314325452 -5.437618332327987 0.49074875887924746
-132.43393602225314 -5.441668968691504 0.4886701558431055
-131.93324061196105 -5.445581133889146 0.48658790643288446
-131.43254520166897 -5.449354203635414 0.48450207811698714
-130.93184979137692 -5.45298755364481 0.482412738363816
-130.43115438108484 -5.456480559631837 0.4803199546417725
-129.93045897079276 -5.4598325973109905 0.4782237944192596
-129.4297635605007 -5.46304304239678 0.47612432516467923
-128.92906815020862 -5.466111270603704 0.47402161434643336
-128.42837273991654 -5.469036657646259 0.47191572943292487
-127.92767732962449 -5.471818579238957 0.4698067378925566
-127.4269819193324 -5.47445641109629 0.4676947071937288
-126.92628650904032 -5.476949528932767 0.4655797048048452
-126.42559109874827 -5.479297308462879 0.46346179819430905
-125.92489568845619 -5.481499125401141 0.46134105483051974
-125.42420027816411 -5.483554355462045 0.4592175421818832
-124.92350486787205 -5.485462374360097 0.45709132771679833
-124.42280945757997 -5.487222557809794 0.4549624789036693
-123.92211404728789 -5.488834281525638 0.45283106321089855
-123.42141863699584 -5.490296921222138 0.45069714810688716
-122.92072322670376 -5.491609852613791 0.44856080106003887
-122.42002781641168 -5.492772451415093 0.44642208953875434
-121.91933240611961 -5.493784093340553 0.4442810810114369
-121.41863699582754 -5.4946441541046696 0.44213784294648845
-120.91794158553546 -5.495352009421946 0.4399924428123115
-120.41724617524339 -5.495907035006882 0.4378449480773084
-119.91655076495132 -5.496308606573976 0.43569542620988116
-119.41585535465924 -5.49655609983774 0.4335439446784322
-118.91515994436718 -5.4966488905126605 0.4313905709513644
-118.41446453407511 -5.496586354313252 0.4292353724970788
-117.91376912378303 -5.4963678669540075 0.42707841678397834
-117.41307371349096 -5.495992804149437 0.42491977128046493
-116.91237830319889 -5.495460541614035 0.42275950345494234
-116.41168289290681 -5.494770455062303 0.4205976807758108
-115.91098748261474 -5.493921920208745 0.41843437071147443
-115.41029207232268 -5.492914312767862 0.4162696407303335
-114.9095966620306 -5.491747008454157 0.4141035583007922
-114.40890125173853 -5.490419382982134 0.4119361908912516
-113.90820584144646 -5.488930812066284 0.409767605970115
-113.40751043115438 -5.487280671421121 0.40759787100578265
-112.90681502086231 -5.4854683367611345 0.40542705346666
-112.40611961057024 -5.483493183800838 0.4032552208211469
-111.90542420027816 -5.481354588254722 0.40108244053764525
-111.4047287899861 -5.479051925837297 0.39890878008456016
-110.90403337969401 -5.476584572263059 0.3967343069302914
-110.40333796940195 -5.473951903246515 0.39455908854324223
-109.90264255910988 -5.471153294502161 0.39238319239181424
-109.4019471488178 -5.468188121744497 0.39020668594441116
-108.90125173852573 -5.465055760688031 0.38802963666943274
-108.40055632823366 -5.461755587047263 0.38585211203528497
-107.89986091794158 -5.4582869765366935 0.3836741795103658
-107.39916550764951 -5.454649304870819 0.3814959065630808
-106.89847009735745 -5.450841947764147 0.3793173606618306
-106.39777468706536 -5.44686428093118 0.37713860927501847
-105.8970792767733 -5.442715680086414 0.3749597198710464
-105.39638386648123 -5.438395520944354 0.37278075991831644
-104.89568845618915 -5.433903179219506 0.37060179688523137
-104.39499304589708 -5.42923803062636 0.36842289824019275
-103.89429763560501 -5.424399450879427 0.36624413145160345
-103.39360222531293 -5.419386815693205 0.36406556398786544
-102.89290681502086 -5.414199500782199 0.36188726331738025
-102.3922114047288 -5.408836881860904 0.3597092969085525
-101.89151599443672 -5.4032983346438295 0.35753173222978113
-101.39082058414465 -5.397583234845467 0.3553546367494716
-100.89012517385257 -5.391690958180327 0.3531780779360241
-100.3894297635605 -5.385620880362909 0.351002123257842
-99.88873435326843 -5.379372377107714 0.3488268401833277
-99.38803894297635 -5.372944824129238 0.3466522961808823
-98.88734353268428 -5.366337597141994 0.34447855871890903
-98.38664812239222 -5.359550071860473 0.34230569526580995
-97.88595271210013 -5.352581623999182 0.340133773289987
-97.38525730180807 -5.345431629272615 0.3379628602598435
-96.884561891516 -5.338099463395285 0.3357930236437819
-96.38386648122392 -5.330584502081687 0.33362433091020144
-95.88317107093185 -5.322886121046322 0.3314568495275077
-95.38247566063978 -5.315003696003695 0.3292906469641022
-94.8817802503477 -5.3069366026683085 0.32712579068838604
-94.38108484005564 -5.298684216754655 0.32496234816876296
-93.88038942976357 -5.290245913977245 0.3228003868736345
-93.37969401947149 -5.28162107005058 0.3206399742714022
-92.87899860917942 -5.272809060689153 0.3184811778304711
-92.37830319888734 -5.263809261607478 0.3163240650192392
-91.87760778859527 -5.254621048520042 0.31416870330611296
-91.3769123783032 -5.245243797141359 0.312015160159493
-90.87621696801112 -5.235676883185924 0.3098635030477804
-90.37552155771905 -5.225919682368238 0.3077137994393793
-89.87482614742699 -5.215971570402807 0.3055661168026909
-89.3741307371349 -5.205831923004139 0.3034205226061167
-88.87343532684284 -5.195500115886716 0.30127708431806216
-88.37273991655077 -5.184975524765052 0.2991358694069262
-87.87204450625869 -5.1742575253536485 0.2969969453411135
-87.37134909596662 -5.163345493367005 0.29486037958902284
-86.87065368567455 -5.152238804519622 0.292726239619062
-86.36995827538247 -5.1409368345260065 0.2905945928996277
-85.8692628650904 -5.129438959100653 0.2884655068991258
-85.36856745479834 -5.117744553958065 0.2863390490859579
-84.86787204450626 -5.105852994812745 0.2842152869285242
-84.36717663421419 -5.093763657379199 0.28209428789522933
-83.86648122392211 -5.081475917371916 0.27997611945447615
-83.36578581363004 -5.068989150505413 0.2778608490746653
-82.86509040333797 -5.056302732494183 0.27574854422419875
-82.36439499304589 -5.043416039052722 0.2736392723714803
-81.86369958275382 -5.030328445895546 0.27153310098491007
-81.36300417246176 -5.017039328737144 0.2694300975328923
-80.86230876216968 -5.003548063292026 0.2673303294838281
-80.36161335187761 -4.989854025274687 0.26523386430612167
-79.86091794158554 -4.975956590399626 0.26314076946817316
-79.36022253129346 -4.961855134381361 0.26105111243838547
-78.85952712100139 -4.947549032934379 0.258964960685161
-78.35883171070932 -4.933037661773183 0.25688238167690175
-77.85813630041724 -4.918320396612277 0.25480344288201145
-77.35744089012518 -4.903396613166156 0.2527282117688912
-76.85674547983311 -4.888265687149331 0.2506567558059412
-76.35605006954103 -4.872926994276303 0.24858914246156788
-75.85535465924896 -4.857379910261573 0.24652543920417097
-75.35465924895689 -4.84162381081963 0.24446571350215424
-74.85396383866481 -4.825658071664991 0.242410032823917
-74.35326842837274 -4.80948206851215 0.24035846463786564
-73.85257301808066 -4.793095177075612 0.23831107641239907
-73.3518776077886 -4.776496773069873 0.2362679356159219
-72.85118219749653 -4.759686232209451 0.23422910971683436
-72.35048678720445 -4.742662930208823 0.23219466618353973
-71.84979137691238 -4.7254262427825084 0.2301646724844409
-71.34909596662031 -4.707975545645001 0.22813919608794025
-70.84840055632823 -4.690310214510803 0.22611830446243847
-70.34770514603616 -4.672429625094415 0.22410206507633929
-69.8470097357441 -4.654333153110347 0.22209054539804335
-69.34631432545201 -4.636020174273087 0.22008381289595486
-68.84561891515995 -4.617490064297151 0.21808193503847534
-68.34492350486788 -4.5987421988970265 0.21608497929400766
-67.8442280945758 -4.579775953787227 0.21409301313095203
-67.34353268428373 -4.560590704682245 0.21210610401771351
-66.84283727399166 -4.54118582729659 0.21012431942269277
-66.34214186369958 -4.521560697344754 0.2081477268142909
-65.84144645340751 -4.501714690541248 0.20617639366091384
-65.34075104311543 -4.481647182600572 0.20421038743096048
-64.84005563282336 -4.461357549237215 0.20224977559283414
-64.3393602225313 -4.440845166165701 0.20029462561493766
-63.838664812239216 -4.4201094091005135 0.1983450049656726
-63.33796940194715 -4.399149653756147 0.19640098111344267
-62.83727399165508 -4.377965275847133 0.19446262152664812
-62.336578581363 -4.356555651087954 0.19252999367369222
-61.83588317107093 -4.334920155193104 0.19060316502297697
-61.335187760778865 -4.313058163877094 0.18868220304290612
-60.834492350486784 -4.290969052854433 0.18676717520187985
-60.333796940194716 -4.268652197839606 0.18485814896830105
-59.83310152990265 -4.2461069745471285 0.18295519181057301
-59.33240611961057 -4.223332758691496 0.18105837119709683
-58.8317107093185 -4.200328925987211 0.1791677545962745
-58.33101529902643 -4.177094852148775 0.17728340947650972
-57.83031988873435 -4.15362991289069 0.17540540330620497
-57.329624478442284 -4.12993348392745 0.17353380355376086
-56.82892906815022 -4.106004940973576 0.17166867768758026
-56.328233657858135 -4.081843659743542 0.16981009317606693
-55.82753824756607 -4.05744901595187 0.16795811748762063
-55.326842837273986 -4.032820385313055 0.166112818090646
-54.82614742698192 -4.007957143541601 0.1642742624535432
-54.32545201668985 -3.982858666352012 0.1624425180447147
-53.82475660639777 -3.957524329458783 0.16061765233256559
-53.3240611961057 -3.931953508576413 0.15879973278549558
-52.823365785813635 -3.9061455794194107 0.15698882687190802
-52.322670375521554 -3.8800999177022746 0.15518500206020397
-51.82197496522949 -3.853815899139513 0.1533883258187863
-51.321279554937405 -3.8272928994456157 0.15159886561605745
-50.82058414464535 -3.8005302943350907 0.14981668892042072
-50.31988873435327 -3.7735274595224393 0.1480418632002763
-49.81919332406119 -3.746283770722158 0.14627445592402882
-49.318497913769136 -3.718798603648759 0.1445145345600785
-48.817802503477054 -3.691071334016737 0.14276216657683
-48.31710709318497 -3.6631013375405903 0.14101741944268126
-47.81641168289292 -3.6348879899348283 0.1392803606260387
-47.31571627260084 -3.606430666913946 0.13755105759530434
-46.81502086230876 -3.5777287441924486 0.135829577818877
-46.3143254520167 -3.5487815974848376 0.13411598876516267
-45.81363004172462 -3.519588602505606 0.13241035790256378
-45.31293463143254 -3.4901491349692657 0.13071275269947963
-44.81223922114049 -3.460462570590318 0.12902324062431442
-44.311543810848406 -3.4305282850832626 0.12734188914547057
-43.810848400556324 -3.4003456541625976 0.12566876573134783
-43.31015299026427 -3.3699140535428285 0.12400393785035219
-42.80945757997219 -3.339232858938461 0.1223474729708825
-42.30876216968011 -3.308301446063979 0.12069943856134474
-41.808066759388026 -3.277119190633899 0.11905990209013778
-41.30737134909597 -3.245685468362729 0.11742893102566582
-40.80667593880389 -3.2139996549649483 0.11580659283633216
-40.30598052851181 -3.182061126155072 0.11419295499053478
-39.80528511821976 -3.149869257647609 0.11258808495668232
-39.304589707927676 -3.117423425157048 0.11099205020317188
-38.803894297635594 -3.0847230043978904 0.10940491819840675
-38.30319888734354 -3.0517673710846562 0.10782675641079026
-37.80250347705146 -3.018555900931819 0.10625763230872393
-37.30180806675938 -2.9850879696538986 0.10469761336061018
-36.801112656467325 -2.9513629529653995 0.1031467670348532
-36.30041724617524 -2.917380226580801 0.10160516079985188
-35.79972183588316 -2.883139166214632 0.10007286212400951
-35.29902642559111 -2.8486391475813813 0.09854993847573207
-34.79833101529903 -2.813879546395543 0.09703645732341665
-34.297635605006946 -2.7788597383716303 0.09553248613546833
-33.79694019471489 -2.7435790992241476 0.09403809238028865
-33.29624478442281 -2.708037004667581 0.09255334352628003
-32.79554937413073 -2.672232830416439 0.09107830704184489
-32.294853963838676 -2.6361659521852365 0.08961305039538475
-31.794158553546595 -2.599835745688453 0.08815764105530294
-31.293463143254513 -2.563241586640596 0.08671214649000186
-30.79276773296246 -2.5263828507561863 0.08527663416788217
-30.29207232267038 -2.4892589137497003 0.08385117155734895
-29.791376912378297 -2.451869151335651 0.08243582612680106
-29.290681502086244 -2.414212939228543 0.0810306653446436
-28.789986091794162 -2.376289653142873 0.0796357566792763
-28.28929068150208 -2.3380986687931316 0.07825116759910428
-27.788595271210028 -2.299639361893842 0.07687696557253082
-27.287899860917946 -2.260911108159503 0.07551321806795125
-26.787204450625865 -2.221913283304591 0.0741599925537742
-26.28650904033381 -2.1826452630436366 0.07281735649840032
-25.78581363004173 -2.1431064230911216 0.07148537737023203
-25.28511821974965 -2.103296139161558 0.07016412263767174
-24.784422809457595 -2.063213786969447 0.06885365976912011
-24.283727399165514 -2.022858742229296 0.06755405623298044
-23.783031988873432 -1.9822303806555814 0.06626537949765782
-23.28233657858135 -1.94132807796284 0.06498769703154844
-22.781641168289298 -1.9001512098655426 0.06372107630306006
-22.280945757997216 -1.858699152078202 0.062465584780593324
-21.780250347705135 -1.816971280315341 0.061221289932549765
-21.27955493741308 -1.774966970291419 0.0599882592273318
-20.778859527121 -1.7326855977209743 0.058766560133341854
-20.27816411682892 -1.6901265383184796 0.05755626011898323
-19.777468706536865 -1.6472891677984662 0.05635742665265569
-19.276773296244784 -1.6041728618754074 0.05517012720276431
-18.776077885952702 -1.560776996263826 0.053994429237709744
-18.27538247566065 -1.5171009466782104 0.05283040022589618
-17.774687065368568 -1.473144088833063 0.051678107635723385
-17.273991655076486 -1.4289057984428994 0.05053761893559466
-16.773296244784433 -1.384385451222215 0.04940900159391153
-16.27260083449235 -1.33958242288549 0.04829232307907732
-15.77190542420027 -1.2944960891472472 0.047187650859496215
-15.271210013908217 -1.2491258257219904 0.046095052403567975
-14.770514603616135 -1.2034710083242135 0.045014595179693244
-14.269819193324054 -1.1575310126684115 0.04394634665627888
-13.769123783032 -1.1113052144691002 0.04289037430172287
-13.268428372739919 -1.0647929894407826 0.041846745584429405
-12.767732962447838 -1.0179937132979386 0.04081552797280002
-12.267037552155784 -0.9709067617550919 0.039796788935239795
-11.766342141863703 -0.9235315105267234 0.038790595940146715
-11.265646731571621 -0.8758673353273558 0.037797016455924974
-10.764951321279568 -0.8279136118714847 0.03681611795097966
-10.264255910987487 -0.779669715873605 0.03584796789370875
-9.763560500695405 -0.7311350230482112 0.034892633752517326
-9.262865090403352 -0.682308909109834 0.03395018299580426
-8.76216968011127 -0.6331907497729401 0.033020683091976415
