Polar data for 2 at Re = 248571.42857142858
Alpha (deg) Cl Cd
-180.0 -9.892802852285252 1.4349445662908786
-179.49930458970792 -9.902731812865946 1.4314226289109013
-178.99860917941587 -9.912484788316647 1.427876433964587
-178.49791376912378 -9.922061437181403 1.4243061643478627
-177.9972183588317 -9.931461418004249 1.4207120029566542
-177.49652294853965 -9.940684389329231 1.4170941326868849
-176.99582753824757 -9.949730009700387 1.4134527364344815
-176.4951321279555 -9.95859793766176 1.4097879970953693
-175.99443671766343 -9.967287831757398 1.406100097565474
-175.49374130737135 -9.975799350531336 1.4023892207407218
-174.99304589707927 -9.984132152527618 1.3986555495170394
-174.49235048678722 -9.992285896290287 1.3948992667903484
-173.99165507649514 -10.000260240363383 1.3911205554565773
-173.49095966620305 -10.00805484329095 1.3873195984116513
-172.990264255911 -10.01566936361703 1.3834965785514945
-172.48956884561892 -10.023103459885663 1.3796516787720339
-171.98887343532684 -10.030356790640893 1.3757850819691961
-171.48817802503476 -10.037429014426761 1.3718969710389046
-170.9874826147427 -10.044319789787309 1.367987528877087
-170.48678720445062 -10.051028775266577 1.364056938379666
-169.98609179415854 -10.057555629408613 1.3601053824425706
-169.4853963838665 -10.06390001075745 1.3561330439617227
-168.9847009735744 -10.070061577857135 1.3521401058330509
-168.48400556328232 -10.076039989251715 1.3481267509524792
-167.98331015299027 -10.081834903485223 1.3440931622159347
-167.4826147426982 -10.087445979101705 1.3400395225193404
-166.9819193324061 -10.092872874645206 1.3359660147586225
-166.48122392211405 -10.09811524865976 1.3318728218297096
-165.98052851182197 -10.103172759689414 1.3277601266285248
-165.4798331015299 -10.108045066278214 1.3236281120509934
-164.97913769123784 -10.112731826970194 1.3194769609930403
-164.47844228094576 -10.117232700309398 1.3153068563505943
-163.97774687065368 -10.121547344839875 1.3111179810195768
-163.47705146036162 -10.125675419105654 1.3069105178959173
-162.97635605006954 -10.129616581650788 1.3026846498755382
-162.47566063977746 -10.13337049101932 1.2984405598543682
-161.9749652294854 -10.136936805755282 1.2941784307283297
-161.47426981919332 -10.140315184402724 1.2898984453933486
-160.97357440890124 -10.143505285505682 1.2856007867453527
-160.4728789986092 -10.146506767608201 1.281285637680267
-159.9721835883171 -10.14931928925433 1.276953181094015
-159.47148817802503 -10.151942508988098 1.272603599882525
-158.97079276773297 -10.154376085353553 1.2682370769417222
-158.4700973574409 -10.15661967689474 1.263853795167529
-157.9694019471488 -10.158672942155697 1.2594539374558733
-157.46870653685676 -10.160535539680463 1.2550376867026818
-156.96801112656468 -10.16220712801309 1.250605225803877
-156.4673157162726 -10.163687365697612 1.2461567376553881
-155.96662030598054 -10.16497591127807 1.2416924051531388
-155.46592489568846 -10.166072423298514 1.237212411193054
-154.96522948539638 -10.166976560302977 1.2327169386710597
-154.46453407510432 -10.167687980835504 1.2282061704830844
-153.96383866481224 -10.168206343440142 1.223680289525048
-153.46314325452016 -10.168531306660926 1.2191394786928818
-152.9624478442281 -10.168662529041898 1.214583920882507
-152.46175243393603 -10.168599669127108 1.21001379898985
-151.96105702364395 -10.16834238546059 1.2054292959108366
-151.4603616133519 -10.167890336586389 1.2008305945413953
-150.9596662030598 -10.167243181048548 1.1962178777774486
-150.45897079276773 -10.166400577391103 1.1915913285149224
-149.95827538247568 -10.165362184158106 1.1869511296497437
-149.4575799721836 -10.164127659893587 1.1822974640778356
-148.9568845618915 -10.162696663141599 1.1776305146951251
-148.45618915159943 -10.161068852446178 1.17295046439754
-147.95549374130738 -10.15924388635137 1.1682574960810015
-147.4547983310153 -10.157221423401209 1.1635517926414385
-146.95410292072324 -10.155001122139748 1.1588335369747742
-146.45340751043116 -10.152582641111017 1.1541029119769346
-145.95271210013908 -10.149965638859067 1.1493601005438474
-145.452016689847 -10.14714977392794 1.1446052855714386
-144.95132127955495 -10.14413470486167 1.1398386499556288
-144.45062586926286 -10.140920090204308 1.1350603765923484
-143.94993045897078 -10.137505588499891 1.130270648377519
-143.44923504867873 -10.13389085829246 1.125469648207069
-142.94853963838665 -10.130075558126059 1.1206575589769272
-142.44784422809457 -10.126059346544734 1.1158345635830125
-141.9471488178025 -10.121841882092518 1.1110008449212516
-141.44645340751043 -10.11742282331346 1.1061565858875733
-140.94575799721835 -10.112801828751602 1.1013019693779025
-140.44506258692627 -10.10797855695098 1.0964371782881626
-139.94436717663422 -10.10295266645564 1.0915623955142821
-139.44367176634213 -10.097723815809626 1.0866778039521854
-138.94297635605005 -10.092291663556976 1.0817835864977965
-138.442280945758 -10.086655868241731 1.0768799260470414
-137.94158553546592 -10.080816088407943 1.071967005495847
-137.44089012517384 -10.07477198259964 1.0670450077401392
-136.94019471488178 -10.06852320936087 1.0621141156758414
-136.4394993045897 -10.06206942723568 1.0571745121988794
-135.93880389429762 -10.055410294768105 1.0522263802051792
-135.43810848400557 -10.04854547050219 1.0472699025906695
-134.9374130737135 -10.041474612981977 1.0423052622512736
-134.4367176634214 -10.034197380751504 1.0373326420829139
-133.93602225312935 -10.026713432354821 1.0323522249815216
-133.43532684283727 -10.019022426335964 1.0273641938430182
-132.9346314325452 -10.011124021238972 1.0223687315633299
-132.43393602225314 -10.003017875607897 1.0173660210383815
-131.93324061196105 -9.994703647986771 1.0123562451641026
-131.43254520166897 -9.98618099691964 1.0073395868364157
-130.93184979137692 -9.977449580950548 1.0023162289512457
-130.43115438108484 -9.968509058623534 0.9972863544045187
-129.93045897079276 -9.959359088482639 0.9922501460921633
-129.4297635605007 -9.949999329071911 0.987207786910101
-128.92906815020862 -9.940429438935386 0.9821594597542596
-128.42837273991654 -9.930649076617106 0.977105347520564
-127.92767732962449 -9.92065790066112 0.9720456331049403
-127.4269819193324 -9.91045556961146 0.9669804994033118
-126.92628650904032 -9.90004174201217 0.9619101293116052
-126.42559109874827 -9.889416076407302 0.9568347057257494
-125.92489568845619 -9.878578231340889 0.9517544115416656
-125.42420027816411 -9.86752786535697 0.9466694296552836
-124.92350486787205 -9.856264636999597 0.9415799429625229
-124.42280945757997 -9.8447882048128 0.9364861343593132
-123.92211404728789 -9.833098227340633 0.9313881867415812
-123.42141863699584 -9.821194363127134 0.9262862830052467
-122.92072322670376 -9.80907627071634 0.9211806060462446
-122.42002781641168 -9.796743608652294 0.9160713387604902
-121.91933240611961 -9.784196035479045 0.9109586640439173
-121.41863699582754 -9.771433209740628 0.9058427647924476
-120.91794158553546 -9.758454789981087 0.9007238239020052
-120.41724617524339 -9.745260434744468 0.8956020242685188
-119.91655076495132 -9.731849802574803 0.8904775487879151
-119.41585535465924 -9.718222552016147 0.8853505803561148
-118.91515994436718 -9.70437834161253 0.8802213018690475
-118.41446453407511 -9.690316829908 0.8750898962226346
-117.91376912378303 -9.6760376754466 0.8699565463128065
-117.41307371349096 -9.661540536772367 0.8648214350354892
-116.91237830319889 -9.646825072429348 0.8596847452866008
-116.41168289290681 -9.631890940961583 0.854546659962075
-115.91098748261474 -9.616737800913114 0.8494073619578344
-115.41029207232268 -9.60136531082798 0.8442670341698022
-114.9095966620306 -9.585773129250232 0.8391258594939062
-114.40890125173853 -9.5699609147239 0.8339840208260749
-113.90820584144646 -9.553928325793034 0.8288417010622282
-113.40751043115438 -9.537675021001675 0.823699083098292
-112.90681502086231 -9.52120065889386 0.8185563498301975
-112.40611961057024 -9.504504898013636 0.8134136841538682
-111.90542420027816 -9.487587396905047 0.8082712689652263
-111.4047287899861 -9.470447814112127 0.8031292871601996
-110.90403337969401 -9.453085808178924 0.7979879216347132
-110.40333796940195 -9.435501037649482 0.792847355284694
-109.90264255910988 -9.417693161067834 0.7877077710060651
-109.4019471488178 -9.39966183697803 0.7825693516947554
-108.90125173852573 -9.381406723924112 0.7774322802466871
-108.40055632823366 -9.362927480450114 0.772296739557788
-107.89986091794158 -9.344223765100086 0.7671629125239805
-107.39916550764951 -9.325295236418068 0.7620309820411977
-106.89847009735745 -9.306141552948102 0.7569011310053566
-106.39777468706536 -9.286762373234225 0.751773542312385
-105.8970792767733 -9.267157355820489 0.7466483988582124
-105.39638386648123 -9.247326159250925 0.7415258835387604
-104.89568845618915 -9.22726844206958 0.7364061792499574
-104.39499304589708 -9.2069838628205 0.7312894688877252
-103.89429763560501 -9.186472080047722 0.726175935347994
-103.39360222531293 -9.165732752295288 0.7210657615266844
-102.89290681502086 -9.14476553810724 0.7159591303197226
-102.3922114047288 -9.12357009602762 0.7108562246230405
-101.89151599443672 -9.102146084600477 0.7057572273325563
-101.39082058414465 -9.08049316236984 0.700662321344202
-100.89012517385257 -9.05861098787976 0.6955716895538948
-100.3894297635605 -9.03649921967428 0.6904855148575686
-99.88873435326843 -9.014157516297434 0.6854039801511449
-99.38803894297635 -8.991585536293268 0.6803272683305506
-98.88734353268428 -8.96878293820583 0.6752555622917071
-98.38664812239222 -8.945749380579153 0.6701890449305468
-97.88595271210013 -8.922484521957282 0.665127899142991
-97.38525730180807 -8.898988020884264 0.6600723078249684
-96.884561891516 -8.875259535904132 0.6550224538723979
-96.38386648122392 -8.85129872556093 0.6499785201812107
-95.88317107093185 -8.827105248398713 0.6449406896473329
-95.38247566063978 -8.802678762961502 0.6399091451666885
-94.8817802503477 -8.778018927793351 0.6348840696352
-94.38108484005564 -8.753125401438307 0.6298656459487988
-93.88038942976357 -8.727997842440399 0.6248540570034053
-93.37969401947149 -8.702635909343673 0.6198494856949475
-92.87899860917942 -8.67703926069218 0.6148521149193493
-92.37830319888734 -8.651207555029949 0.6098621275725387
-91.87760778859527 -8.625140450901032 0.6048797065504432
-91.3769123783032 -8.598837606849468 0.5999050347489818
-90.87621696801112 -8.572298681419294 0.5949382950640858
-90.37552155771905 -8.54552333315456 0.5899796703916775
-89.87482614742699 -8.518511220599304 0.5850293436276848
-89.3741307371349 -8.491262002297564 0.5800874976680317
-88.87343532684284 -8.463775336793386 0.5751543154086443
-88.37273991655077 -8.436050882630816 0.5702299797454449
-87.87204450625869 -8.408088298353888 0.5653146735743684
-87.37134909596662 -8.379887242506648 0.5604085797913265
-86.87065368567455 -8.351447373633142 0.5555118812922577
-86.36995827538247 -8.322768350277407 0.550624760973079
-85.8692628650904 -8.293849830983483 0.5457474017297217
-85.36856745479834 -8.264691474295415 0.54087998645811
-84.86787204450626 -8.235292938757244 0.5360226980541662
-84.36717663421419 -8.205653882913012 0.5311757194138165
-83.86648122392211 -8.175773965306764 0.5263392334329919
-83.36578581363004 -8.145652844482544 0.521513423007615
-82.86509040333797 -8.115290178984381 0.5166984710336047
-82.36439499304589 -8.084685627356325 0.5118945604068939
-81.86369958275382 -8.053838848142426 0.5071018740234103
-81.36300417246176 -8.02274949988671 0.502320594779073
-80.86230876216968 -7.991417241133231 0.49755090556980774
-80.36161335187761 -7.959841730426032 0.4927929892915477
-79.86091794158554 -7.928022626309144 0.4880470288402099
-79.36022253129346 -7.895959587326619 0.4833132071117239
-78.85952712100139 -7.863652272022492 0.47859170700201736
-78.35883171070932 -7.831100338940807 0.473882711407011
-77.85813630041724 -7.7983034466256065 0.4691864032226343
-77.35744089012518 -7.765261253620938 0.4645029653448114
-76.85674547983311 -7.731973418470837 0.459832580669463
-76.35605006954103 -7.698439599719347 0.45517543209252387
-75.85535465924896 -7.66465945591051 0.45053170250991115
-75.35465924895689 -7.6306326455883635 0.4459015748175579
-74.85396383866481 -7.596358827296957 0.4412852319113847
-74.35326842837274 -7.561837659580334 0.4366828566873211
-73.85257301808066 -7.527068800982526 0.4320946320412842
-73.3518776077886 -7.492051910047582 0.42752074086921055
-72.85118219749653 -7.456786645319543 0.4229613660670173
-72.35048678720445 -7.42127266534245 0.4184166905306357
-71.84979137691238 -7.385509628660344 0.41388689715598637
-71.34909596662031 -7.349497193817275 0.40937216883899885
-70.84840055632823 -7.313235019357272 0.4048726884755973
-70.34770514603616 -7.2767227638243845 0.40038863896170773
-69.8470097357441 -7.239960085762657 0.3959202031932525
-69.34631432545201 -7.202946643716125 0.3914675640661629
-68.84561891515995 -7.1656820962288315 0.38703090447636135
-68.34492350486788 -7.12816610184483 0.3826104073197738
-67.8442280945758 -7.0903983191081394 0.37820625549232445
-67.34353268428373 -7.052378406562823 0.37381863188993925
-66.84283727399166 -7.014106022752916 0.3694477194085459
-66.34214186369958 -6.975580826222455 0.3650937009440687
-65.84144645340751 -6.9368024755154885 0.36075675939243346
-65.34075104311543 -6.897770629176055 0.3564370776495627
-64.84005563282336 -6.858484945748195 0.35213483861138584
-64.3393602225313 -6.818945083775958 0.34785022517382713
-63.838664812239216 -6.779150701803381 0.3435834202328125
-63.33796940194715 -6.739101458374499 0.33933460668426974
-62.83727399165508 -6.698797012033374 0.33510396742411763
-62.336578581363 -6.658237021324023 0.3308916853482857
-61.83588317107093 -6.617421144790498 0.3266979433527035
-61.335187760778865 -6.576349040976858 0.32252292433329166
-60.834492350486784 -6.535020368427116 0.31836681118597787
-60.333796940194716 -6.493434785685331 0.3142297868066899
-59.83310152990265 -6.451591951295548 0.3101120340913448
-59.33240611961057 -6.4094915238017975 0.30601373593587566
-58.8317107093185 -6.3671331617481215 0.30193507523620666
-58.33101529902643 -6.324516523678575 0.2978762348882602
-57.83031988873435 -6.281641268137189 0.2938373977879676
-57.329624478442284 -6.238507053668009 0.2898187468312494
-56.82892906815022 -6.195113538815079 0.2858204649140299
-56.328233657858135 -6.151460382122433 0.2818427349322421
-55.82753824756607 -6.107547242134121 0.2778857397818084
-55.326842837273986 -6.063373777394187 0.27394966235865126
-54.82614742698192 -6.018939646446665 0.27003468555869836
-54.32545201668985 -5.974244507835593 0.26614099227787213
-53.82475660639777 -5.929288020105034 0.26226876541210564
-53.3240611961057 -5.884069841799008 0.2584181878573195
-52.823365785813635 -5.838589631461563 0.2545894425094344
-52.322670375521554 -5.792847047636748 0.25078271226438686
-51.82197496522949 -5.746841748868601 0.24699818001809404
-51.321279554937405 -5.700573393701156 0.24323602866648364
-50.82058414464535 -5.6540416406784715 0.2394964411054834
-50.31988873435327 -5.607246148344576 0.23577960023101574
-49.81919332406119 -5.560186575243513 0.23208568893901016
-49.318497913769136 -5.512862579919329 0.22841489012539085
-48.817802503477054 -5.465273820916064 0.2247673866860802
-48.31710709318497 -5.417419956777756 0.22114336151700242
-47.81641168289292 -5.369300646048455 0.21754299751409056
-47.31571627260084 -5.320915547272204 0.21396647757326703
-46.81502086230876 -5.272264318993027 0.21041398459045424
-46.3143254520167 -5.223346619754988 0.2068857014615817
-45.81363004172462 -5.1741621081021165 0.20338181108257358
-45.31293463143254 -5.124710442578458 0.19990249634935586
-44.81223922114049 -5.07499128172806 0.19644794015785272
-44.311543810848406 -5.025004284094951 0.19301832540398833
-43.810848400556324 -4.974749108223179 0.18961383498369044
-43.31015299026427 -4.924225412656799 0.18623465179288856
-42.80945757997219 -4.873432855939829 0.18288095872750154
-42.30876216968011 -4.822371096616326 0.1795529386834589
-41.808066759388026 -4.771039793230322 0.17625077455668303
-41.30737134909597 -4.719438604325884 0.1729746492430999
-40.80667593880389 -4.667567188447027 0.16972474563864082
-40.30598052851181 -4.6154252041377966 0.1665012466392246
-39.80528511821976 -4.5630123099422555 0.1633043351407808
-39.304589707927676 -4.510328164404424 0.16013419403923534
-38.803894297635594 -4.457372426068339 0.15699100623051065
-38.30319888734354 -4.404144753478075 0.1538749546105309
-37.80250347705146 -4.350644805177641 0.1507862220752274
-37.30180806675938 -4.296872239711082 0.14772499152052254
-36.801112656467325 -4.242826715622471 0.14469144584234406
-36.30041724617524 -4.188507891455814 0.14168576793661258
-35.79972183588316 -4.133915425755166 0.13870814069925408
-35.29902642559111 -4.079048977064577 0.1357587470262016
-34.79833101529903 -4.023908203928077 0.13283776981337225
-34.297635605006946 -3.968492764889714 0.1299453919566973
-33.79694019471489 -3.91280231849353 0.12708179635209915
-33.29624478442281 -3.856836523283562 0.12424716589550555
-32.79554937413073 -3.8005950378038595 0.12144168348284068
-32.294853963838676 -3.7440775205984598 0.11866553201003227
-31.794158553546595 -3.6872836302114007 0.11591889437300096
-31.293463143254513 -3.630213025186738 0.11320195346767448
-30.79276773296246 -3.572865364068502 0.11051489218998056
-30.29207232267038 -3.515240305400735 0.10785789343584162
-29.791376912378297 -3.4573375077274773 0.1052311401011854
-29.290681502086244 -3.399156629592792 0.10263481508194139
-28.789986091794162 -3.3406973295406854 0.10006910127402491
-28.28929068150208 -3.281959266115227 0.09753418157337257
-27.788595271210028 -3.222942097860454 0.095030238875905
-27.287899860917946 -3.163645483320391 0.09255745607754462
-26.787204450625865 -3.1040690810390967 0.09011601607422093
-26.28650904033381 -3.044212549560623 0.08770610176185989
-25.78581363004173 -2.9840755474289833 0.08532789603638213
-25.28511821974965 -2.92365773318824 0.08298158179371895
-24.784422809457595 -2.8629587653824413 0.0806673419297963
-24.283727399165514 -2.801978302555597 0.07838535934053303
-23.783031988873432 -2.740716003251777 0.07613581692186222
-23.28233657858135 -2.6791715260150153 0.07391889756970449
-22.781641168289298 -2.6173445293893605 0.0717347841799858
-22.280945757997216 -2.5552346719188432 0.06958365964863389
-21.780250347705135 -2.492841612147519 0.06746570687157294
-21.27955493741308 -2.4301650086194155 0.06538110874472891
-20.778859527121 -2.3672045198785807 0.06333004816402776
-20.27816411682892 -2.303959804469056 0.06131270802539723
-19.777468706536865 -2.2404305209348867 0.059329271224756175
-19.276773296244784 -2.1766163278201103 0.05737992065803943
-18.776077885952702 -2.1125168836687718 0.0554648392211623
-18.27538247566065 -2.0481318470249126 0.053584209810059624
-17.774687065368568 -1.983460876432574 0.05173821532065026
-17.273991655076486 -1.9185036304357905 0.04992703864886194
-16.773296244784433 -1.8532597675786247 0.04815086269062063
-16.27260083449235 -1.7877289464050965 0.04640987034185584
-15.77190542420027 -1.7219108254592617 0.04470424449848642
-15.271210013908217 -1.6558050632851473 0.04303416805644189
-14.770514603616135 -1.5894113184268162 0.04139982391164643
-14.269819193324054 -1.522729249428299 0.03980139496002422
-13.769123783032 -1.4557585148336298 0.03823906409750477
-13.268428372739919 -1.388498773186868 0.0367130142200105
-12.767732962447838 -1.3209496830320409 0.03522342822346558
-12.267037552155784 -1.2531109029131966 0.03377048900380131
-11.766342141863703 -1.1849820913743732 0.03235437945693653
-11.265646731571621 -1.1165629069596261 0.03097528247880077
-10.764951321279568 -1.047853008212979 0.029633380965321754
-10.264255910987487 -0.9788520536784842 0.02832885781241834
-9.763560500695405 -0.9095597019001826 0.027061895916021816
-9.262865090403352 -0.8399756114221089 0.025832678172052814
-8.76216968011127 -0.7700994407883184 0.024641387476446175
-8.261474269819189 -0.6999308485428455 0.0234882067251172
-7.760778859527136 -0.6294694932297245 0.02237331881399185
