Polar data for a18sm at Re = 134285.7142857143
Alpha (deg) Cl Cd
-180.0 -9.40952500704089 0.703033725652579
-179.49930458970792 -9.423015876230439 0.7013178095443605
-178.99860917941587 -9.43634266039955 0.699590980266169
-178.49791376912378 -9.449504828837057 0.6978533202469502
-177.9972183588317 -9.46250185083179 0.6961049119156538
-177.49652294853965 -9.475333195672581 0.694345837701226
-176.99582753824757 -9.487998332648262 0.6925761800326155
-176.4951321279555 -9.500496731047667 0.6907960213387702
-175.99443671766343 -9.512827860159623 0.6890054440486374
-175.49374130737135 -9.524991189272964 0.6872045305911653
-174.99304589707927 -9.536986187676524 0.6853933633953023
-174.49235048678722 -9.548812324659131 0.6835720248899945
-173.99165507649514 -9.56046906950962 0.6817405975041907
-173.49095966620305 -9.571955891516822 0.6798991636668391
-172.990264255911 -9.583272259969567 0.6780478058068865
-172.48956884561892 -9.59441764415669 0.6761866063532814
-171.98887343532684 -9.60539151336702 0.674315647734972
-171.48817802503476 -9.616193336889387 0.6724350123809059
-170.9874826147427 -9.626822584012627 0.6705447827200303
-170.48678720445062 -9.637278724025572 0.6686450411812924
-169.98609179415854 -9.64756122621705 0.6667358701936418
-169.4853963838665 -9.657669559875893 0.6648173521860251
-168.9847009735744 -9.667603194290939 0.6628895695873905
-168.48400556328232 -9.677361598751013 0.6609526048266862
-167.98331015299027 -9.686944242544948 0.6590065403328592
-167.4826147426982 -9.696350594961578 0.6570514585348578
-166.9819193324061 -9.705580125289732 0.6550874418616296
-166.48122392211405 -9.714632302818245 0.6531145727421218
-165.98052851182197 -9.723506596835948 0.6511329336052839
-165.4798331015299 -9.732202476631668 0.6491426068800626
-164.97913769123784 -9.740719411494245 0.6471436749954048
-164.47844228094576 -9.749056870712504 0.6451362203802603
-163.97774687065368 -9.757214323575282 0.6431203254635754
-163.47705146036162 -9.765191239371404 0.6410960726742984
-162.97635605006954 -9.77298708738971 0.6390635444413767
-162.47566063977746 -9.780601336919025 0.6370228231937595
-161.9749652294854 -9.788033457248185 0.634973991360393
-161.47426981919332 -9.79528291766602 0.6329171313702254
-160.97357440890124 -9.802349187461362 0.6308523256522053
-160.4728789986092 -9.80923173592304 0.6287796566352789
-159.9721835883171 -9.815930032339892 0.6266992067483957
-159.47148817802503 -9.822443546000743 0.624611058420503
-158.97079276773297 -9.828771746194432 0.6225152940805488
-158.4700973574409 -9.834914102209785 0.6204119961574796
-157.9694019471488 -9.840870083335634 0.6183012470802446
-157.46870653685676 -9.846639158860816 0.6161831292777907
-156.96801112656468 -9.852220798074155 0.614057725179067
-156.4673157162726 -9.85761447026449 0.6119251172130192
-155.96662030598054 -9.862819644720647 0.6097853878085983
-155.46592489568846 -9.867835790731464 0.6076386193947486
-154.96522948539638 -9.872662377585769 0.6054848944004193
-154.46453407510432 -9.877298874572391 0.6033242952545593
-153.96383866481224 -9.881744750980168 0.6011569043861155
-153.46314325452016 -9.885999476097927 0.5989828042240354
-152.9624478442281 -9.890062519214501 0.5968020771972672
-152.46175243393603 -9.893933349618724 0.5946148057347577
-151.96105702364395 -9.897611436599425 0.5924210722654567
-151.4603616133519 -9.901096249445436 0.5902209592183106
-150.9596662030598 -9.90438725744559 0.5880145490222676
-150.45897079276773 -9.907483929888718 0.5858019241062752
-149.95827538247568 -9.910385736063654 0.5835831668992816
-149.4575799721836 -9.91309214525923 0.581358359830234
-148.9568845618915 -9.91560262676427 0.5791275853280805
-148.45618915159943 -9.917916649867612 0.5768909258217702
-147.95549374130738 -9.92003368385809 0.5746484637402492
-147.4547983310153 -9.92195319802453 0.5724002815124659
-146.95410292072324 -9.923674661655772 0.5701464615673678
-146.45340751043116 -9.925197544040637 0.5678870863339031
-145.95271210013908 -9.926521314467967 0.5656222382410189
-145.452016689847 -9.927645442226586 0.5633519997176643
-144.95132127955495 -9.928569396605331 0.5610764531927864
-144.45062586926286 -9.929292646893032 0.5587956810953326
-143.94993045897078 -9.929814662378517 0.5565097658542505
-143.44923504867873 -9.930134912350626 0.554218789898489
-142.94853963838665 -9.930252866098181 0.5519228356569964
-142.44784422809457 -9.930167992910024 0.5496219855587184
-141.9471488178025 -9.92987976207498 0.5473163220326046
-141.44645340751043 -9.929387642881881 0.5450059275076008
-140.94575799721835 -9.928691104619558 0.5426908844126569
-140.44506258692627 -9.92778961657685 0.5403712751767201
-139.94436717663422 -9.92668264804258 0.5380471822287382
-139.44367176634213 -9.925369668305587 0.5357186879976586
-138.94297635605005 -9.923850146654694 0.5333858749124293
-138.442280945758 -9.922123552378743 0.5310488254019982
-137.94158553546592 -9.920189354766558 0.528707621895313
-137.44089012517384 -9.918047023106972 0.5263623468213213
-136.94019471488178 -9.915696026688822 0.5240130826089714
-136.4394993045897 -9.913135834800935 0.5216599116872113
-135.93880389429762 -9.910365916732145 0.5193029164849882
-135.43810848400557 -9.90738574177128 0.5169421794312489
-134.9374130737135 -9.904194779207177 0.5145777829549442
-134.4367176634214 -9.900792498328665 0.5122098094850182
-133.93602225312935 -9.897178368424576 0.5098383414504225
-133.43532684283727 -9.89335185878374 0.5074634612801009
-132.9346314325452 -9.889312438694994 0.505085251403005
-132.43393602225314 -9.885059577447164 0.5027037942480802
-131.93324061196105 -9.880592744329087 0.5003191722442756
-131.43254520166897 -9.87591140862959 0.4979314678205365
-130.93184979137692 -9.871015039637506 0.49554076340581515
-130.43115438108484 -9.865903106641667 0.4931471414290552
-129.93045897079276 -9.860575078930903 0.4907506843192074
-129.4297635605007 -9.855030425794055 0.4883514745052176
-128.92906815020862 -9.849268616519943 0.4859495944160335
-128.42837273991654 -9.843289120397406 0.48354512648060505
-127.92767732962449 -9.837091406715272 0.48113815312787717
-127.4269819193324 -9.830674944762377 0.4787287567867993
-126.92628650904032 -9.824039203827546 0.47631701988631964
-126.42559109874827 -9.817183653199617 0.47390302485538577
-125.92489568845619 -9.810107762167418 0.47148685412294405
-125.42420027816411 -9.802811000019782 0.46906859011794394
-124.92350486787205 -9.795292836045546 0.4666483152693331
-124.42280945757997 -9.787552739533535 0.4642261120060592
-123.92211404728789 -9.779590179772578 0.4618020627570694
-123.42141863699584 -9.771404626051517 0.4593762499513106
-122.92072322670376 -9.762995547659175 0.4569487560177344
-122.42002781641168 -9.754362413884387 0.45451966338528355
-121.91933240611961 -9.745504694015986 0.4520890544829102
-121.41863699582754 -9.736421857342801 0.44965701173955935
-120.91794158553546 -9.727113373153669 0.44722361758418044
-120.41724617524339 -9.717578710737413 0.4447889544457207
-119.91655076495132 -9.707817339382876 0.44235310475312734
-119.41585535465924 -9.697828728378878 0.4399161509353489
-118.91515994436718 -9.68761234701426 0.4374781754213331
-118.41446453407511 -9.67716766457785 0.43503926064002757
-117.91376912378303 -9.666494150358478 0.4325994890203804
-117.41307371349096 -9.655591273644978 0.4301589429913398
-116.91237830319889 -9.644458503726183 0.4277177049818515
-116.41168289290681 -9.633095309890924 0.42527585742086554
-115.91098748261474 -9.621501161428034 0.4228334827373286
-115.41029207232268 -9.609675527626338 0.42039066336018976
-114.9095966620306 -9.597617877774674 0.4179474817183944
-114.40890125173853 -9.585327681161875 0.41550402024089333
-113.90820584144646 -9.572804407076767 0.41306036135663243
-113.40751043115438 -9.560047524808189 0.4106165874945589
-112.90681502086231 -9.547056503644963 0.40817278108362315
-112.40611961057024 -9.533830812875934 0.4057290245527701
-111.90542420027816 -9.52036992178992 0.40328540033094923
-111.4047287899861 -9.506673299675764 0.40084199084710864
-110.90403337969401 -9.49274041582229 0.3983988785301947
-110.40333796940195 -9.478570739518332 0.39595614580915633
-109.90264255910988 -9.464163740052724 0.3935138751129404
-109.4019471488178 -9.449518886714296 0.3910721488704963
-108.90125173852573 -9.434635648791883 0.38863104951076993
-108.40055632823366 -9.419513495574313 0.38619065946270986
-107.89986091794158 -9.404151896350413 0.3837510611552642
-107.39916550764951 -9.388550320409024 0.38131233701738193
-106.89847009735745 -9.372708237038978 0.37887456947800807
-106.39777468706536 -9.356625115529097 0.37643784096609206
-105.8970792767733 -9.340300425168223 0.374002233910582
-105.39638386648123 -9.32373363524518 0.37156783074042515
-104.89568845618915 -9.306924215048806 0.36913471388456826
-104.39499304589708 -9.28987163386793 0.3667029657719621
-103.89429763560501 -9.272575360991384 0.3642726688315521
-103.39360222531293 -9.255034865707996 0.36184390549228646
-102.89290681502086 -9.237249617306603 0.3594167581831114
-102.3922114047288 -9.21921908507604 0.3569913093329787
-101.89151599443672 -9.20094273830513 0.3545676413708328
-101.39082058414465 -9.18242004628271 0.3521458367256232
-100.89012517385257 -9.16365047829761 0.3497259778262967
-100.3894297635605 -9.14463350363866 0.34730814710180097
-99.88873435326843 -9.125368591594698 0.3448924269810854
-99.38803894297635 -9.105855211454548 0.3424788998930964
-98.88734353268428 -9.08609283250705 0.34006764826678154
-98.38664812239222 -9.066080924041032 0.33765875453109034
-97.88595271210013 -9.045818955345316 0.3352523011149691
-97.38525730180807 -9.025306395708753 0.3328483704473664
-96.884561891516 -9.004542714420161 0.3304470449572295
-96.38386648122392 -8.983527380768377 0.3280484070735051
-95.88317107093185 -8.962259864042233 0.325652539225144
-95.38247566063978 -8.940739633530553 0.3232595238410912
-94.8817802503477 -8.918966158522178 0.32086944335029527
-94.38108484005564 -8.896938908305938 0.3184823801817052
-93.88038942976357 -8.874657352170665 0.31609841676426825
-93.37969401947149 -8.852120959405186 0.31371763552693027
-92.87899860917942 -8.829329199298334 0.3113401188986416
-92.37830319888734 -8.806281541138949 0.3089659493083486
-91.87760778859527 -8.782977454215851 0.3065952091850011
-91.3769123783032 -8.759416407817882 0.30422798095754416
-90.87621696801112 -8.735597871233864 0.3018643470549281
-90.37552155771905 -8.711521313752637 0.2995043899060979
-89.87482614742699 -8.68718620466303 0.2971481919400039
-89.3741307371349 -8.662592013253878 0.294795835585592
-88.87343532684284 -8.637738208814003 0.29244740327181123
-88.37273991655077 -8.612624260632247 0.2901029774276092
-87.87204450625869 -8.587249637997436 0.28776264048193406
-87.37134909596662 -8.561613810198404 0.28542647486373257
-86.87065368567455 -8.535716246523984 0.2830945630019542
-86.36995827538247 -8.509556416263006 0.2807669873255448
-85.8692628650904 -8.483133788704299 0.27844383026345293
-85.36856745479834 -8.456447833136696 0.2761251742446272
-84.86787204450626 -8.429498018849037 0.2738111016980143
-84.36717663421419 -8.402283815130142 0.27150169505256155
-83.86648122392211 -8.374804691268851 0.2691970367372197
-83.36578581363004 -8.347060116553992 0.26689720918093457
-82.86509040333797 -8.319049560274395 0.26460229481265213
-82.36439499304589 -8.290772491718899 0.2623123760613231
-81.86369958275382 -8.262228380176333 0.2600275353558939
-81.36300417246176 -8.233416694935519 0.25774785512531256
-80.86230876216968 -8.2043369052853 0.25547341779852634
-80.36161335187761 -8.17498848051451 0.2532043058044851
-79.86091794158554 -8.145370889911968 0.2509406015721343
-79.36022253129346 -8.115483602766519 0.248682387530423
-78.85952712100139 -8.085326088366989 0.24642974610829788
-78.35883171070932 -8.054897816002205 0.24418275973470754
-77.85813630041724 -8.024198254961002 0.2419415108386001
-77.35744089012518 -7.993226874532217 0.23970608184892322
-76.85674547983311 -7.961983144004678 0.23747655519462368
-76.35605006954103 -7.930466532667216 0.23525301330465093
-75.85535465924896 -7.898676509808661 0.23303553860795218
-75.35465924895689 -7.866612544717851 0.23082421353347465
-74.85396383866481 -7.8342741066836155 0.22861912051016647
-74.35326842837274 -7.801660664994783 0.22642034196697575
-73.85257301808066 -7.768771688940186 0.2242279603328488
-73.3518776077886 -7.735606647808654 0.22204205803673643
-72.85118219749653 -7.702165010889031 0.21986271750758318
-72.35048678720445 -7.668446247470131 0.21769002117433894
-71.84979137691238 -7.634449826840802 0.21552405146595094
-71.34909596662031 -7.600175218289872 0.21336489081136728
-70.84840055632823 -7.56562189110616 0.2112126216395352
-70.34770514603616 -7.530789314578506 0.20906732637940278
-69.8470097357441 -7.495676957995753 0.2069290874599164
-69.34631432545201 -7.4602842906467135 0.20479798731002768
-68.84561891515995 -7.424610781820233 0.20267410835868033
-68.34492350486788 -7.388655900805135 0.2005575330348242
-67.8442280945758 -7.35241911689026 0.19844834376740744
-67.34353268428373 -7.3158998993644335 0.19634662298537636
-66.84283727399166 -7.279097717516489 0.19425245311768086
-66.34214186369958 -7.242012040635254 0.19216591659326548
-65.84144645340751 -7.2046423380095685 0.19008709584108013
-65.34075104311543 -7.166988078928259 0.1880160732900738
-64.84005563282336 -7.129048732680156 0.18595293136919105
-64.3393602225313 -7.090823768554097 0.18389775250738355
-63.838664812239216 -7.052312655838911 0.18185061913359674
-63.33796940194715 -7.013514863823419 0.17981161367677873
-62.83727399165508 -6.974429861796471 0.17778081856587674
-62.336578581363 -6.935057119046897 0.1757583162298389
-61.83588317107093 -6.89539610486351 0.1737441890976142
-61.335187760778865 -6.855446288535161 0.17173851959814984
-60.834492350486784 -6.815207139350674 0.1697413901603922
-60.333796940194716 -6.774678126598877 0.1677528832132929
-59.83310152990265 -6.733858719568614 0.16577308118579476
-59.33240611961057 -6.6927483875487095 0.16380206650684942
-58.8317107093185 -6.651346599827987 0.16183992160540145
-58.33101529902643 -6.609652825695292 0.15988672891039984
-57.83031988873435 -6.56766653443945 0.15794257085079538
-57.329624478442284 -6.525387195349291 0.15600752985553262
-56.82892906815022 -6.482814277713654 0.15408168835355968
-56.328233657858135 -6.43994725082136 0.15216512877382643
-55.82753824756607 -6.396785583961249 0.15025793354527744
-55.326842837273986 -6.353328746422152 0.1483601850968635
-54.82614742698192 -6.3095762074929045 0.1464719658575318
-54.32545201668985 -6.265527436462323 0.14459335825622605
-53.82475660639777 -6.221181902619259 0.14272444472190055
-53.3240611961057 -6.176539075252526 0.14086530768349897
-52.823365785813635 -6.131598423650967 0.13901602956996945
-52.322670375521554 -6.086359417103411 0.13717669281026362
-51.82197496522949 -6.040821524898696 0.1353473798333234
-51.321279554937405 -5.994984216325639 0.13352817306809867
-50.82058414464535 -5.948846960673087 0.1317191549435402
-50.31988873435327 -5.902409227229866 0.12992040788859255
-49.81919332406119 -5.855670485284799 0.1281320143322056
-49.318497913769136 -5.808630204126734 0.12635405670332395
-48.817802503477054 -5.761287853044491 0.1245866174309001
-48.31710709318497 -5.713642901326901 0.12282977894387687
-47.81641168289292 -5.665694818262809 0.12108362367120501
-47.31571627260084 -5.617443073141041 0.11934823404183265
-46.81502086230876 -5.568887135250412 0.11762369248470611
-46.3143254520167 -5.520026473879772 0.11591008142877351
-45.81363004172462 -5.470860558317954 0.11420748330298475
-45.31293463143254 -5.421388857853779 0.11251598053628437
-44.81223922114049 -5.371610841776091 0.11083565555762315
-44.311543810848406 -5.321525979373712 0.10916659079594743
-43.810848400556324 -5.2711337399354665 0.10750886868020265
-43.31015299026427 -5.220433592750206 0.10586257163934049
-42.80945757997219 -5.169425007106758 0.1042277821023046
-42.30876216968011 -5.118107452293936 0.10260458249804844
-41.808066759388026 -5.066480397600587 0.10099305525551477
-41.30737134909597 -5.014543312315547 0.09939328280365528
-40.80667593880389 -4.962295665727636 0.09780534757141718
-40.30598052851181 -4.909736927125687 0.09622933198774414
-39.80528511821976 -4.856866565798553 0.0946653184815896
-39.304589707927676 -4.803684051035029 0.09311338948189724
-38.803894297635594 -4.750188852123975 0.09157362741761427
-38.30319888734354 -4.69638043835422 0.09004611471769147
-37.80250347705146 -4.6422582790145785 0.08853093381107785
-37.30180806675938 -4.587821843393895 0.0870281671267153
-36.801112656467325 -4.533070600781011 0.08553789709355991
-36.30041724617524 -4.4780040204647324 0.08406020614055182
-35.79972183588316 -4.422621571733908 0.08259517669664002
-35.29902642559111 -4.366922723877382 0.08114289119077794
-34.79833101529903 -4.310906946183957 0.07970343205190927
-34.297635605006946 -4.254573707942486 0.07827688170898034
-33.79694019471489 -4.197922478441795 0.07686332259094192
-33.29624478442281 -4.140952726970708 0.07546283712674035
-32.79554937413073 -4.08366392281806 0.07407550774532284
-32.294853963838676 -4.026055535272709 0.0727014168756393
-31.794158553546595 -3.9681270336234413 0.07134064694663694
-31.293463143254513 -3.909877887159118 0.06999328038726121
-30.79276773296246 -3.851307565168574 0.06865939962646289
-30.29207232267038 -3.792415536940615 0.0673390870931892
-29.791376912378297 -3.733201271764097 0.06603242521638558
-29.290681502086244 -3.673664238927858 0.0647394964250037
-28.789986091794162 -3.6138039077206927 0.06346038314798724
-28.28929068150208 -3.553619747431464 0.062195167814287855
-27.788595271210028 -3.493111227349003 0.06094393285285188
-27.287899860917946 -3.4322778167621295 0.05970676069262387
-26.787204450625865 -3.371118984959678 0.05848373376255461
-26.28650904033381 -3.309634201230486 0.057274934491594875
-25.78581363004173 -3.247822934863374 0.05608044530868833
-25.28511821974965 -3.1856846551471834 0.05490034864278398
-24.784422809457595 -3.123218831370759 0.053734726922829046
-24.283727399165514 -3.060424932822903 0.05258366257777075
-23.783031988873432 -2.9973024287924575 0.05144723803655987
-23.28233657858135 -2.9338507885682668 0.05032553572814097
-22.781641168289298 -2.8700694814391547 0.04921863808146215
-22.280945757997216 -2.805957976693945 0.048126627525475085
-21.780250347705135 -2.7415157436214934 0.047049586489121664
-21.27955493741308 -2.6767422515106056 0.04598759740135622
-20.778859527121 -2.6116369696501125 0.04494074269111975
-20.27816411682892 -2.546199367328873 0.043909104787365705
-19.777468706536865 -2.4804289138357007 0.04289276611903686
-19.276773296244784 -2.414325078459419 0.041891809115086664
-18.776077885952702 -2.347887330488876 0.04090631620445878
-18.27538247566065 -2.281115139212899 0.03993636981610221
-17.774687065368568 -2.2140079739203125 0.03898205237896685
-17.273991655076486 -2.146565303899957 0.03804344632199547
-16.773296244784433 -2.0787865984406673 0.037120634074140624
-16.27260083449235 -2.010671326831256 0.036213698064347766
-15.77190542420027 -1.9422189583605758 0.035322720721565004
-15.271210013908217 -1.8734289623174498 0.03444778447474045
-14.770514603616135 -1.804300807990709 0.033588971752822216
-14.269819193324054 -1.7348339646691877 0.032746364984757526
-13.769123783032 -1.6650279016417167 0.03192004659949449
-13.268428372739919 -1.5948820881971266 0.031110099025981223
-12.767732962447838 -1.524395993624252 0.030316604693164943
-12.267037552155784 -1.4535690872119233 0.029539646029993764
-11.766342141863703 -1.382400838248968 0.02877930546541402
-11.265646731571621 -1.3108907160242276 0.028035665428376492
-10.764951321279568 -1.2390381898265326 0.02730880834782751
-10.264255910987487 -1.166842728944696 0.0265988166527143
-9.763560500695405 -1.0943038026675738 0.025905772771984973
-9.262865090403352 -1.0214208802839928 0.025229759134586752
-8.76216968011127 -0.9481934310827627 0.024570858169468638
-8.261474269819189 -0.8746209243527425 0.02392915230557963
