Polar data for 2 at Re = 225714.28571428574
Alpha (deg) Cl Cd
-180.0 -7.560547611585418 0.8418455044143183
-179.49930458970792 -7.580677927248518 0.8399881213083822
-178.99860917941587 -7.60067390363179 0.8381169363252365
-178.49791376912378 -7.620534674804077 0.8362320439364808
-177.9972183588317 -7.640259374834212 0.8343335386137112
-177.49652294853965 -7.659847137791029 0.8324215148285254
-176.99582753824757 -7.679297097743371 0.8304960670525199
-176.4951321279555 -7.698608388760068 0.8285572897572939
-175.99443671766343 -7.717780144909959 0.8266052774144435
-175.49374130737135 -7.736811500261879 0.824640124495567
-174.99304589707927 -7.755701588884662 0.8226619254722614
-174.49235048678722 -7.774449544847149 0.8206707748161242
-173.99165507649514 -7.7930545022181725 0.8186667669987535
-173.49095966620305 -7.81151559506657 0.8166499964917457
-172.990264255911 -7.829831957461177 0.8146205577666976
-172.48956884561892 -7.848002723470831 0.812578545295209
-171.98887343532684 -7.866027027164366 0.8105240535488762
-171.48817802503476 -7.88390400261062 0.8084571769992961
-170.9874826147427 -7.901632783878425 0.8063780101180671
-170.48678720445062 -7.919212505036626 0.8042866473767856
-169.98609179415854 -7.936642300154048 0.8021831832470505
-169.4853963838665 -7.953921303299538 0.8000677122004569
-168.9847009735744 -7.971048648541924 0.7979403287086047
-168.48400556328232 -7.988023469950043 0.7958011272430905
-167.98331015299027 -8.004844901592735 0.7936502022755116
-167.4826147426982 -8.021512077538834 0.7914876482774653
-166.9819193324061 -8.038024131857176 0.7893135597205487
-166.48122392211405 -8.054380198616599 0.7871280310763609
-165.98052851182197 -8.070579411885932 0.784931156816498
-165.4798331015299 -8.086620905734023 0.7827230314125571
-164.97913769123784 -8.1025038142297 0.7805037493361369
-164.47844228094576 -8.1182272714418 0.7782734050588338
-163.97774687065368 -8.133790411439161 0.7760320930522451
-163.47705146036162 -8.149192368290617 0.7737799077879692
-162.97635605006954 -8.164432276065007 0.7715169437376035
-162.47566063977746 -8.179509268831161 0.7692432953727455
-161.9749652294854 -8.194422480657924 0.7669590571649916
-161.47426981919332 -8.209171045614129 0.7646643235859398
-160.97357440890124 -8.223754097768605 0.7623591891071879
-160.4728789986092 -8.238170771190198 0.760043748200333
-159.9721835883171 -8.252420199947741 0.757718095336972
-159.47148817802503 -8.266501518110067 0.7553823249887042
-158.97079276773297 -8.280413859746009 0.7530365316271264
-158.4700973574409 -8.294156358924418 0.750680809723834
-157.9694019471488 -8.307728149714114 0.7483152537504265
-157.46870653685676 -8.321128366183945 0.7459399581785007
-156.96801112656468 -8.334356142402736 0.7435550174796546
-156.4673157162726 -8.347410612439333 0.741160526125485
-155.96662030598054 -8.360290910362567 0.7387565785875896
-155.46592489568846 -8.372996170241274 0.7363432693375656
-154.96522948539638 -8.385525526144292 0.7339206928470106
-154.46453407510432 -8.397878112140454 0.7314889435875223
-153.96383866481224 -8.410053062298603 0.7290481160306987
-153.46314325452016 -8.422049510687566 0.7265983046481359
-152.9624478442281 -8.433866591376187 0.7241396039114323
-152.46175243393603 -8.445503438433297 0.7216721082921846
-151.96105702364395 -8.456959185927737 0.7191959122619906
-151.4603616133519 -8.468232967928337 0.7167111102924479
-150.9596662030598 -8.479323918503937 0.7142177968551551
-150.45897079276773 -8.490231171723373 0.7117160664217075
-149.95827538247568 -8.500953861655479 0.7092060134637042
-149.4575799721836 -8.511491122369094 0.7066877324527401
-148.9568845618915 -8.521842087933052 0.7041613178604156
-148.45618915159943 -8.53200589241619 0.7016268641583279
-147.95549374130738 -8.541981669887344 0.6990844658180728
-147.4547983310153 -8.55176855441535 0.6965342173112494
-146.95410292072324 -8.561365680069043 0.6939762131094531
-146.45340751043116 -8.570772180917261 0.6914105476842833
-145.95271210013908 -8.579987191028842 0.688837315507336
-145.452016689847 -8.589009844472617 0.6862566110502095
-144.95132127955495 -8.597839275317426 0.6836685287845021
-144.45062586926286 -8.606474617632106 0.6810731631818097
-143.94993045897078 -8.614915005485487 0.6784706087137302
-143.44923504867873 -8.62315957294641 0.6758609598518606
-142.94853963838665 -8.631207454083711 0.6732443110678006
-142.44784422809457 -8.639057782966223 0.6706207568331453
-141.9471488178025 -8.646709693662787 0.6679903916194923
-141.44645340751043 -8.654162320242236 0.6653533098984401
-140.94575799721835 -8.66141479677341 0.6627096061415847
-140.44506258692627 -8.668466257325136 0.6600593748205255
-139.94436717663422 -8.675315835966257 0.6574027104068583
-139.44367176634213 -8.68196266676561 0.6547397073721826
-138.94297635605005 -8.68840588379203 0.6520704601880933
-138.442280945758 -8.69464462111435 0.6493950633261887
-137.94158553546592 -8.70067801280141 0.6467136112580676
-137.44089012517384 -8.706505192922041 0.6440261984553255
-136.94019471488178 -8.71212529554509 0.6413329193895614
-136.4394993045897 -8.717537454739377 0.638633868532372
-135.93880389429762 -8.722740804573752 0.6359291403553542
-135.43810848400557 -8.727734479117043 0.6332188293301078
-134.9374130737135 -8.732517612438095 0.6305030299282264
-134.4367176634214 -8.737089338605738 0.6277818366213108
-133.93602225312935 -8.741448791688805 0.6250553438809565
-133.43532684283727 -8.745595105756134 0.6223236461787629
-132.9346314325452 -8.74952741487656 0.6195868379863259
-132.43393602225314 -8.753244853118929 0.6168450137752426
-131.93324061196105 -8.75674655455207 0.6140982680171121
-131.43254520166897 -8.760031653244816 0.6113466951835307
-130.93184979137692 -8.763099283266003 0.6085903897460965
-130.43115438108484 -8.765948578684478 0.6058294461764053
-129.93045897079276 -8.768578673569063 0.6030639589460567
-129.4297635605007 -8.7709887019886 0.6002940225266469
-128.92906815020862 -8.773177798011933 0.5975197313897735
-128.42837273991654 -8.775145095707883 0.5947411800070348
-127.92767732962449 -8.776889729145296 0.5919584628500278
-127.4269819193324 -8.77841083239301 0.5891716743903486
-126.92628650904032 -8.779707539519855 0.5863809090995964
-126.42559109874827 -8.780778984594665 0.5835862614493694
-125.92489568845619 -8.781624301686286 0.5807878259112613
-125.42420027816411 -8.782242624863546 0.5779856969568729
-124.92350486787205 -8.782633088195285 0.5751799690578017
-124.42280945757997 -8.782794825750338 0.5723707366856428
-123.92211404728789 -8.782726971597537 0.5695580943119964
-123.42141863699584 -8.782428659805728 0.5667421364084568
-122.92072322670376 -8.781899024443733 0.5639229574466247
-122.42002781641168 -8.781137199580403 0.5611006518980954
-121.91933240611961 -8.780142319284568 0.5582753142344681
-121.41863699582754 -8.77891351762506 0.555447038927338
-120.91794158553546 -8.777449928670723 0.5526159204483039
-120.41724617524339 -8.775750686490387 0.5497820532689632
-119.91655076495132 -8.773814925152887 0.5469455318609138
-119.41585535465924 -8.771641778727062 0.5441064506957514
-118.91515994436718 -8.769230381281751 0.5412649042450759
-118.41446453407511 -8.766579866885785 0.5384209869804819
-117.91376912378303 -8.763689369608002 0.5355747933735693
-117.41307371349096 -8.76055802351724 0.5327264178959352
-116.91237830319889 -8.757184962682333 0.5298759550191761
-116.41168289290681 -8.75356932117212 0.5270234992148899
-115.91098748261474 -8.749710233055431 0.5241691449546739
-115.41029207232268 -8.745606832401108 0.5213129867101267
-114.9095966620306 -8.741258253277984 0.5184551189528441
-114.40890125173853 -8.736663629754897 0.5155956361544243
-113.90820584144646 -8.731822095900686 0.5127346327864644
-113.40751043115438 -8.726732785784183 0.5098722033205612
-112.90681502086231 -8.72139483347422 0.5070084422283154
-112.40611961057024 -8.71580737303964 0.5041434439813195
-111.90542420027816 -8.70996953854927 0.5012773030511755
-111.4047287899861 -8.703880464071961 0.49841011390947876
-110.90403337969401 -8.69753928367654 0.4955419710278266
-110.40333796940195 -8.690945131431846 0.4926729688778162
-109.90264255910988 -8.684097141406713 0.48980320193104565
-109.4019471488178 -8.676994447669973 0.4869327646591117
-108.90125173852573 -8.66963618429047 0.48406175153361475
-108.40055632823366 -8.662021485337036 0.4811902570261488
-107.89986091794158 -8.654149484878511 0.4783183756083116
-107.39916550764951 -8.646019316983718 0.4754462017517025
-106.89847009735745 -8.637630115721514 0.4725738299279174
-106.39777468706536 -8.628981015160722 0.469701354608554
-105.8970792767733 -8.620071149370176 0.4668288702652099
-105.39638386648123 -8.610899652418718 0.4639564713694828
-104.89568845618915 -8.601465658375187 0.46108425239297124
-104.39499304589708 -8.591768301308411 0.4582123078072702
-103.89429763560501 -8.581806715287225 0.45534073208397907
-103.39360222531293 -8.571580034380474 0.4524696196946929
-102.89290681502086 -8.561087392656994 0.4495990651110129
-102.3922114047288 -8.550327924185616 0.446729162804534
-101.89151599443672 -8.539300763035179 0.44386000724685215
-101.39082058414465 -8.52800504327451 0.4409916929095703
-100.89012517385257 -8.516439898972457 0.438124314264279
-100.3894297635605 -8.504604464197852 0.43525796578258125
-99.88873435326843 -8.49249787301953 0.43239274193607025
-99.38803894297635 -8.480119259506328 0.4295287371963472
-98.88734353268428 -8.467467757727086 0.426666046035008
-98.38664812239222 -8.454542501750634 0.4238047629236503
-97.88595271210013 -8.441342625645802 0.4209449823338691
-97.38525730180807 -8.427867263481446 0.4180867987372665
-96.884561891516 -8.41411554932638 0.4152303066054366
-96.38386648122392 -8.400086617249459 0.412375600409977
-95.88317107093185 -8.385779601319506 0.40952277462248543
-95.38247566063978 -8.371193635605366 0.4066719237145613
-94.8817802503477 -8.35632785417587 0.4038231421577996
-94.38108484005564 -8.341181391099855 0.40097652442379883
-93.88038942976357 -8.325753380446159 0.3981321649841558
-93.37969401947149 -8.310042956283617 0.3952901583104682
-92.87899860917942 -8.294049252681058 0.39245059887433453
-92.37830319888734 -8.27777140370733 0.38961358114735245
-91.87760778859527 -8.261208543431264 0.38677919960111695
-91.3769123783032 -8.24435980592169 0.38394754870722836
-90.87621696801112 -8.227224325247459 0.3811187229372808
-90.37552155771905 -8.20980123547739 0.3782928167628745
-89.87482614742699 -8.192089670680328 0.37546992465560813
-89.3741307371349 -8.174088764925118 0.37265014108707306
-88.87343532684284 -8.155797652280576 0.3698335605288732
-88.37273991655077 -8.137215466815551 0.36702027745260346
-87.87204450625869 -8.118341342598882 0.3642103863298616
-87.37134909596662 -8.099174413699398 0.3614039816322425
-86.87065368567455 -8.079713814185936 0.35860115783134927
-86.36995827538247 -8.059958678127337 0.35580200939877504
-85.8692628650904 -8.039908139592423 0.3530066308061175
-85.36856745479834 -8.019561332650047 0.35021511652497606
-84.86787204450626 -7.998917391369037 0.34742756102694483
-84.36717663421419 -7.977975449818233 0.34464405878362503
-83.86648122392211 -7.956734642066465 0.3418647042666134
-83.36578581363004 -7.9351941021825745 0.3390895919475059
-82.86509040333797 -7.913352964235397 0.33631881629789917
-82.36439499304589 -7.891210362293766 0.3335524717893954
-81.86369958275382 -7.868765430426523 0.330790652893586
-81.36300417246176 -7.846017302702496 0.3280334540820713
-80.86230876216968 -7.822965113190529 0.32528096982644716
-80.36161335187761 -7.799607995959455 0.3225332945983157
-79.86091794158554 -7.775945085078103 0.31979052286926923
-79.36022253129346 -7.751975514615324 0.3170527491109072
-78.85952712100139 -7.727698418639946 0.31432006779482724
-78.35883171070932 -7.703112931220801 0.311592573392627
-77.85813630041724 -7.678218186426733 0.30887036037590243
-77.35744089012518 -7.6530133183265665 0.3061535232162538
-76.85674547983311 -7.627497460989156 0.3034421563852743
-76.35605006954103 -7.601669748483317 0.300736354354566
-75.85535465924896 -7.575529314877908 0.29803621159572313
-75.35465924895689 -7.549075294241739 0.295341822580345
-74.85396383866481 -7.522306820643671 0.2926532817800276
-74.35326842837274 -7.495223028152518 0.28997068366636936
-73.85257301808066 -7.46782305083714 0.2872941227109671
-73.3518776077886 -7.440106022766349 0.28462369338542026
-72.85118219749653 -7.412071078009003 0.28195949016132293
-72.35048678720445 -7.383717350633919 0.27930160751027544
-71.84979137691238 -7.35504397470995 0.27665013990387277
-71.34909596662031 -7.326050084305919 0.27400518181371436
-70.84840055632823 -7.296734813490662 0.271366827711397
-70.34770514603616 -7.267097296333024 0.26873517206851916
-69.8470097357441 -7.237136666901845 0.2661103093566759
-69.34631432545201 -7.206852059265943 0.26349233404746486
-68.84561891515995 -7.176242607494167 0.26088134061248724
-68.34492350486788 -7.145307445655355 0.25827742352333716
-67.8442280945758 -7.114045707818335 0.25568067725161225
-67.34353268428373 -7.082456528051946 0.2530911962689111
-66.84283727399166 -7.050539040425029 0.2505090750468304
-66.34214186369958 -7.018292379006411 0.24793440805696607
-65.84144645340751 -6.985715677864933 0.24536728977092112
-65.34075104311543 -6.9528080710694375 0.2428078146602861
-64.84005563282336 -6.919568692688754 0.24025607719666128
-64.3393602225313 -6.8859966767917165 0.23771217185164703
-63.838664812239216 -6.852091157447166 0.23517619309683566
-63.33796940194715 -6.817851268723928 0.23264823540383014
-62.83727399165508 -6.783276144690859 0.23012839324422282
-62.336578581363 -6.748364919416778 0.22761676108961135
-61.83588317107093 -6.713116726970522 0.22511343341159692
-61.335187760778865 -6.677530701420933 0.2226185046817781
-60.834492350486784 -6.64160597683685 0.22013206937174454
-60.333796940194716 -6.605341687287098 0.217654221953101
-59.83310152990265 -6.568736966840525 0.21518505689744247
-59.33240611961057 -6.531790949565959 0.2127246686763666
-58.8317107093185 -6.4945027695322395 0.2102731517614693
-58.33101529902643 -6.456871560808208 0.2078306006243482
-57.83031988873435 -6.41889645746269 0.20539710973660538
-57.329624478442284 -6.380576593564522 0.2029727735698332
-56.82892906815022 -6.3419111031825555 0.2005576865956302
-56.328233657858135 -6.302899120385607 0.1981519432855949
-55.82753824756607 -6.263539779242514 0.19575563811132587
-55.326842837273986 -6.223832213822131 0.19336886554441632
-54.82614742698192 -6.183775558193281 0.19099172005646745
-54.32545201668985 -6.143368946424804 0.18862429611907336
-53.82475660639777 -6.102611512585538 0.18626668820383704
-53.3240611961057 -6.061502390744311 0.18391899078234994
-52.823365785813635 -6.02004071496995 0.18158129832621325
-52.322670375521554 -5.978225619331319 0.17925370530702375
-51.82197496522949 -5.936056237897237 0.1769363061963791
-51.321279554937405 -5.893531704736539 0.17462919546587516
-50.82058414464535 -5.850651153918076 0.1723324675871105
-50.31988873435327 -5.807413719510668 0.17004621703168007
-49.81919332406119 -5.76381853558315 0.16777053827118868
-49.318497913769136 -5.71986473620437 0.16550552577722508
-48.817802503477054 -5.675551455443156 0.16325127402139047
-48.31710709318497 -5.630877827368343 0.16100787747528342
-47.81641168289292 -5.585842986048775 0.15877543061049978
-47.31571627260084 -5.540446065553287 0.15655402789863723
-46.81502086230876 -5.494686199950706 0.1543437638112943
-46.3143254520167 -5.448562523309883 0.15214473282006688
-45.81363004172462 -5.402074169699636 0.1499570293965535
-45.31293463143254 -5.355220273188801 0.14778074801235183
-44.81223922114049 -5.307999967846246 0.14561598313905685
-44.311543810848406 -5.260412387740772 0.14346282924826978
-43.810848400556324 -5.212456666941232 0.1413213808115847
-43.31015299026427 -5.1641319395164516 0.13919173230060108
-42.80945757997219 -5.115437339535285 0.13707397818691566
-42.30876216968011 -5.066372001066538 0.1349682129421261
-41.808066759388026 -5.016935058179083 0.13287453103783095
-41.30737134909597 -4.967125644941735 0.1307930269456243
-40.80667593880389 -4.916942895423327 0.12872379513710738
-40.30598052851181 -4.866385943692697 0.12666693008387428
-39.80528511821976 -4.815453923818701 0.12462252625752798
-39.304589707927676 -4.764145969870139 0.12259067812965993
-38.803894297635594 -4.712461215915887 0.12057148017186867
-38.30319888734354 -4.66039879602476 0.11856502685575451
-37.80250347705146 -4.60795784426559 0.11657141265291246
-37.30180806675938 -4.555137494707212 0.11459073203494194
-36.801112656467325 -4.501936881418491 0.11262307947343794
-36.30041724617524 -4.448355138468216 0.1106685494399999
-35.79972183588316 -4.394391399925267 0.1087272364062237
-35.29902642559111 -4.340044799858459 0.10679923484370876
-34.79833101529903 -4.285314472336633 0.10488463922405009
-34.297635605006946 -4.230199551428612 0.10298354401884799
-33.79694019471489 -4.17469917120326 0.10109604369969835
-33.29624478442281 -4.118812465729375 0.09922223273819705
-32.79554937413073 -4.062538569075821 0.09736220560594352
-32.294853963838676 -4.005876615311445 0.09551605677453631
-31.794158553546595 -3.9488257385050436 0.0936838807155704
-31.293463143254513 -3.891385072725481 0.09186577190064346
-30.79276773296246 -3.833553752041594 0.09006182480135491
-30.29207232267038 -3.7753309105222024 0.08827213388930152
-29.791376912378297 -3.716715682236162 0.0864967936360774
-29.290681502086244 -3.657707201252301 0.08473589851328553
-28.789986091794162 -3.598304601639445 0.0829895429925209
-28.28929068150208 -3.5385070174664297 0.0812578215453785
-27.788595271210028 -3.478313582802118 0.07954082864346132
-27.287899860917946 -3.4177234317153222 0.0778386587583608
-26.787204450625865 -3.356735698274879 0.07615140636167725
-26.28650904033381 -3.295349516549639 0.074479165925011
-25.78581363004173 -3.2335640206084215 0.07282203191995348
-25.28511821974965 -3.1713783445200634 0.0711800988181068
-24.784422809457595 -3.1087916223534227 0.06955346109106594
-24.283727399165514 -3.045802988177311 0.06794221321042768
-23.783031988873432 -2.982411576060571 0.06634644964779321
-23.28233657858135 -2.9186165200720606 0.06476626487475665
-22.781641168289298 -2.854416954280579 0.06320175336291653
-22.280945757997216 -2.789812012754981 0.061653009583871404
-21.780250347705135 -2.7248008295641086 0.060120128009214485
-21.27955493741308 -2.6593825387767898 0.058603203110550534
-20.778859527121 -2.5935562744618665 0.0571023293594701
-20.27816411682892 -2.5273211706881686 0.05561760122757439
-19.777468706536865 -2.460676361524531 0.0541491131864584
-19.276773296244784 -2.393620981039789 0.05269695970772423
-18.776077885952702 -2.3261541633027982 0.051261235262963306
-18.27538247566065 -2.258275042382371 0.04984203432377596
-17.774687065368568 -2.1899827523473427 0.04843945136175984
-17.273991655076486 -2.121276427266564 0.04705358084851438
-16.773296244784433 -2.0521552012088695 0.0456845172556328
-16.27260083449235 -1.9826182082430859 0.04433235505471542
-15.77190542420027 -1.9126645824380692 0.042997188717359
-15.271210013908217 -1.8422934578626262 0.04167911271515942
-14.770514603616135 -1.7715039685856113 0.040378221519715235
-14.269819193324054 -1.7002952486758596 0.039094609602626756
-13.769123783032 -1.628666432202206 0.03782837143548631
-13.268428372739919 -1.5566166532334855 0.036579601489895114
-12.767732962447838 -1.4841450458385208 0.035348394237449926
-12.267037552155784 -1.4112507440861823 0.03413484414974574
-11.766342141863703 -1.3379328820452767 0.03293904569838288
-11.265646731571621 -1.264190593784646 0.031761093354959
-10.764951321279568 -1.1900230133731307 0.030601081591069085
-10.264255910987487 -1.1154292748795656 0.029459104878313463
-9.763560500695405 -1.0404085123727875 0.028335257688287124
-9.262865090403352 -0.9649598599216387 0.027229634492585947
-8.76216968011127 -0.889082451594938 0.026142329762814692
-8.261474269819189 -0.8127754214615348 0.025073437970562135
-7.760778859527136 -0.7360379035902711 0.02402305358743037
