Polar data for a18sm at Re = 254285.7142857143
Alpha (deg) Cl Cd
-180.0 -9.875485290618144 1.438341734006428
-179.49930458970792 -9.8852026734905 1.4348103440993394
-178.99860917941587 -9.894744264300773 1.4312546337830816
-178.49791376912378 -9.904109731837508 1.42767478645905
-177.9972183588317 -9.913298744889246 1.424070985528639
-177.49652294853965 -9.922310972244532 1.4204434143932416
-176.99582753824757 -9.931146082691907 1.4167922564542503
-176.4951321279555 -9.939803745019919 1.4131176951130633
-175.99443671766343 -9.948283628017098 1.4094199137710706
-175.49374130737135 -9.956585400471994 1.4056990958296676
-174.99304589707927 -9.964708731173154 1.4019554246902506
-174.49235048678722 -9.972653288909111 1.3981890837542088
-173.99165507649514 -9.980418742468412 1.3944002564229385
-173.49095966620305 -9.988004760639601 1.3905891260978342
-172.990264255911 -9.995411012211221 1.3867558761802887
-172.48956884561892 -10.002637165971809 1.3829006900716982
-171.98887343532684 -10.009682890709911 1.3790237511734538
-171.48817802503476 -10.016547855214068 1.3751252428869525
-170.9874826147427 -10.023231728272826 1.3712053486135862
-170.48678720445062 -10.029734178674723 1.3672642517547478
-169.98609179415854 -10.036054875208304 1.3633021357118342
-169.4853963838665 -10.042193486662114 1.3593191838862366
-168.9847009735744 -10.04814968182469 1.3553155796793521
-168.48400556328232 -10.053923129484577 1.3512915064925726
-167.98331015299027 -10.059513498430317 1.3472471477272925
-167.4826147426982 -10.064920457450452 1.3431826867849037
-166.9819193324061 -10.070143675333526 1.3390983070668034
-166.48122392211405 -10.075182820868083 1.3349941919743844
-165.98052851182197 -10.080037562842662 1.3308705249090411
-165.4798331015299 -10.084707570045804 1.3267274892721654
-164.97913769123784 -10.089192511266056 1.3225652684651528
-164.47844228094576 -10.093492055291957 1.3183840458893985
-163.97774687065368 -10.097605870912052 1.3141840049462936
-163.47705146036162 -10.101533626914883 1.3099653290372344
-162.97635605006954 -10.10527499208899 1.3057282015636136
-162.47566063977746 -10.108829635222925 1.3014728059268275
-161.9749652294854 -10.112197225105216 1.2971993255282679
-161.47426981919332 -10.115377430524411 1.2929079437693267
-160.97357440890124 -10.118369920269057 1.2885988440514011
-160.4728789986092 -10.12117436312769 1.2842722097758856
-159.9721835883171 -10.123790427888856 1.279928224344172
-159.47148817802503 -10.126217783341101 1.2755670711576559
-158.97079276773297 -10.128456098272963 1.2711889336177298
-158.4700973574409 -10.130505041472983 1.2667939951257892
-157.9694019471488 -10.132364281729707 1.262382439083225
-157.46870653685676 -10.134033487831672 1.2579544488914345
-156.96801112656468 -10.135512328567426 1.2535102079518121
-156.4673157162726 -10.136800472725511 1.249049899665748
-155.96662030598054 -10.137897589094472 1.2445737074346401
-155.46592489568846 -10.138803346462844 1.2400818146598804
-154.96522948539638 -10.13951741361917 1.2355744047428607
-154.46453407510432 -10.140039459352 1.2310516610849809
-153.96383866481224 -10.140369152449871 1.2265137670876292
-153.46314325452016 -10.140506161701325 1.2219609061522028
-152.9624478442281 -10.140450155894907 1.2173932616800944
-152.46175243393603 -10.140200803819159 1.2128110170726978
-151.96105702364395 -10.139757774262623 1.2082143557314082
-151.4603616133519 -10.13912073601384 1.2036034610576176
-150.9596662030598 -10.138289357861357 1.1989785164527231
-150.45897079276773 -10.13726330859371 1.1943397053181157
-149.95827538247568 -10.136042256999442 1.1896872110551908
-149.4575799721836 -10.134625871867105 1.1850212170653394
-148.9568845618915 -10.133013821985234 1.1803419067499603
-148.45618915159943 -10.13120577614237 1.1756494635104455
-147.95549374130738 -10.129201403127055 1.1709440707481886
-147.4547983310153 -10.127000371727835 1.1662259118645841
-146.95410292072324 -10.124602350733252 1.1614951702610248
-146.45340751043116 -10.122007008931849 1.1567520293389033
-145.95271210013908 -10.119214015112167 1.151996672499616
-145.452016689847 -10.11622303806275 1.1472292831445592
-144.95132127955495 -10.113033746572139 1.1424500446751238
-144.45062586926286 -10.109645809428876 1.1376591404927034
-143.94993045897078 -10.106058895421505 1.1328567539986927
-143.44923504867873 -10.102272673338565 1.1280430685944833
-142.94853963838665 -10.098286811968602 1.1232182676814753
-142.44784422809457 -10.094100980100158 1.1183825346610585
-141.9471488178025 -10.08971484652178 1.1135360529346259
-141.44645340751043 -10.085128080021999 1.1086790059035718
-140.94575799721835 -10.080340349389367 1.1038115769692936
-140.44506258692627 -10.07535132341242 1.098933949533182
-139.94436717663422 -10.070160670879705 1.0940463069966317
-139.44367176634213 -10.064768060579762 1.0891488327610372
-138.94297635605005 -10.059173161301139 1.084241710227793
-138.442280945758 -10.053375641832375 1.0793251227982892
-137.94158553546592 -10.04737517096201 1.0743992538739264
-137.44089012517384 -10.041171417478584 1.069464286856093
-136.94019471488178 -10.034764050170647 1.0645204051461845
-136.4394993045897 -10.028152737826737 1.059567792145597
-135.93880389429762 -10.021337149235396 1.0546066312557207
-135.43810848400557 -10.014316953185173 1.0496371058779528
-134.9374130737135 -10.007091818464602 1.0446593994136841
-134.4367176634214 -9.999661413862231 1.039673695264312
-133.93602225312935 -9.992025408166597 1.034680176831229
-133.43532684283727 -9.984183470166247 1.0296790275158298
-132.9346314325452 -9.976135268649724 1.0246704307195063
-132.43393602225314 -9.967880472405565 1.0196545698436537
-131.93324061196105 -9.95941875022232 1.0146316282896675
-131.43254520166897 -9.950749770888528 1.0096017894589369
-130.93184979137692 -9.941873203192728 1.0045652367528644
-130.43115438108484 -9.932788715923465 0.9995221535728337
-129.93045897079276 -9.923495977869283 0.9944727233202476
-129.4297635605007 -9.913994657818723 0.9894171293964952
-128.92906815020862 -9.904284424560327 0.9843555552029709
-128.42837273991654 -9.89436494688264 0.9792881841410693
-127.92767732962449 -9.884235893574207 0.9742151996121858
-127.4269819193324 -9.87389693342356 0.9691367850177123
-126.92628650904032 -9.86334773521925 0.9640531237590405
-126.42559109874827 -9.852587967749816 0.9589643992375722
-125.92489568845619 -9.8416172998038 0.9538707948546946
-125.42420027816411 -9.830435400169751 0.9487724940118024
-124.92350486787205 -9.819041937636204 0.9436696801102918
-124.42280945757997 -9.807436580991705 0.9385625365515547
-123.92211404728789 -9.795618999024793 0.9334512467369883
-123.42141863699584 -9.783588860524013 0.9283359940679808
-122.92072322670376 -9.77134583427791 0.9232169619459313
-122.42002781641168 -9.758889589075022 0.9180943337722333
-121.91933240611961 -9.74621979370389 0.9129682929482795
-121.41863699582754 -9.733336116953065 0.9078390228754628
-120.91794158553546 -9.720238227611084 0.9027067069551776
-120.41724617524339 -9.706925794466486 0.8975715285888203
-119.91655076495132 -9.693398486307817 0.8924336711777826
-119.41585535465924 -9.679655971923623 0.88729331812346
-118.91515994436718 -9.665697920102438 0.8821506528272461
-118.41446453407511 -9.651523999632815 0.877005858690531
-117.91376912378303 -9.637133879303285 0.8718591191147128
-117.41307371349096 -9.622527227902406 0.8667106175011877
-116.91237830319889 -9.607703714218705 0.861560537251345
-116.41168289290681 -9.592663007040727 0.8564090617665773
-115.91098748261474 -9.57740477515702 0.8512563744482854
-115.41029207232268 -9.561928687356122 0.8461026586978594
-114.9095966620306 -9.546234412426582 0.8409480979166911
-114.40890125173853 -9.53032161915694 0.8357928755061778
-113.90820584144646 -9.514189976335732 0.8306371748677129
-113.40751043115438 -9.497839152751503 0.8254811794026885
-112.90681502086231 -9.481268817192802 0.8203250725124981
-112.40611961057024 -9.464478638448163 0.8151690375985424
-111.90542420027816 -9.447468285306133 0.8100132580622063
-111.4047287899861 -9.430237426555255 0.8048579173048903
-110.90403337969401 -9.41278573098407 0.7997031987279847
-110.40333796940195 -9.395112867381126 0.7945492857328856
-109.90264255910988 -9.377218504534955 0.7893963617209842
-109.4019471488178 -9.359102311234103 0.7842446100936783
-108.90125173852573 -9.340763956267114 0.779094214252359
-108.40055632823366 -9.322203108422535 0.77394535759842
-107.89986091794158 -9.303419436488898 0.7687982235332566
-107.39916550764951 -9.284412609254758 0.7636529954582668
-106.89847009735745 -9.265182295508648 0.7585098567748355
-106.39777468706536 -9.245728164039111 0.7533689908843634
-105.8970792767733 -9.226049883634694 0.7482305811882431
-105.39638386648123 -9.206147123083937 0.7430948110878667
-104.89568845618915 -9.186019551175384 0.7379618639846294
-104.39499304589708 -9.165666836697575 0.7328319232799275
-103.89429763560501 -9.145088648439057 0.7277051723751521
-103.39360222531293 -9.124284655188362 0.7225817946716985
-102.89290681502086 -9.103254525734041 0.7174619735709559
-102.3922114047288 -9.081997928864638 0.7123458924743268
-101.89151599443672 -9.060514533368693 0.7072337347831986
-101.39082058414465 -9.038804008034745 0.7021256838989686
-100.89012517385257 -9.016866021651339 0.6970219232230285
-100.3894297635605 -8.99470024300702 0.6919226361567737
-99.88873435326843 -8.97230634089033 0.6868280061015989
-99.38803894297635 -8.949683984089805 0.6817382164588958
-98.88734353268428 -8.926832841393995 0.6766534506300607
-98.38664812239222 -8.90375258159144 0.6715738920164837
-97.88595271210013 -8.880442873470681 0.6664997240195646
-97.38525730180807 -8.856903385820264 0.6614311300406953
-96.884561891516 -8.833133787428729 0.6563682934812668
-96.38386648122392 -8.809133747084616 0.6513113977426727
-95.88317107093185 -8.784902933576468 0.6462606262263154
-95.38247566063978 -8.76044101569283 0.641216162333578
-94.8817802503477 -8.735747662222245 0.6361781894658577
-94.38108484005564 -8.710822541953252 0.6311468910245551
-93.88038942976357 -8.6856653236744 0.6261224504110533
-93.37969401947149 -8.660275676174226 0.6211050510267547
-92.87899860917942 -8.634653268241276 0.616094876273053
-92.37830319888734 -8.608797768664083 0.611092109551333
-91.87760778859527 -8.582708846231203 0.6060969342630042
-91.3769123783032 -8.55638616973117 0.6011095338094478
-90.87621696801112 -8.529829407952526 0.596130091592061
-90.37552155771905 -8.503038229683817 0.5911587910122392
-89.87482614742699 -8.476012303713588 0.5861958154713779
-89.3741307371349 -8.448751298830377 0.5812413483708635
-88.87343532684284 -8.421254883822723 0.5762955731120986
-88.37273991655077 -8.393522727479176 0.5713586730964731
-87.87204450625869 -8.365554498588274 0.5664308317253827
-87.37134909596662 -8.33734986593856 0.561512232400219
-86.87065368567455 -8.30890849831858 0.5566030585223792
-86.36995827538247 -8.280230064516871 0.5517034934932535
-85.8692628650904 -8.251314233321981 0.5468137207142408
-85.36856745479834 -8.222160673522446 0.5419339235867312
-84.86787204450626 -8.192769053906812 0.5370642855121183
-84.36717663421419 -8.16313904326362 0.5322049898917974
-83.86648122392211 -8.133270310381416 0.5273562201271623
-83.36578581363004 -8.103162524048745 0.5225181596196083
-82.86509040333797 -8.072815353054136 0.5176909917705291
-82.36439499304589 -8.042228466186149 0.5128748999813165
-81.86369958275382 -8.011401532233315 0.5080700676533659
-81.36300417246176 -7.980334219984173 0.503276678188071
-80.86230876216968 -7.949026198227274 0.49849491498682175
-80.36161335187761 -7.917477135751164 0.4937249614510225
-79.86091794158554 -7.88568670134437 0.48896700098205803
-79.36022253129346 -7.853654563795453 0.4842212169813237
-78.85952712100139 -7.821380391892945 0.4794877928502185
-78.35883171070932 -7.788863854425384 0.47476691199013066
-77.85813630041724 -7.756104620181323 0.4700587578024539
-77.35744089012518 -7.723102357949302 0.4653635136885924
-76.85674547983311 -7.689856736517851 0.4606813630499257
-76.35605006954103 -7.656367424675534 0.4560124892878562
-75.85535465924896 -7.622634091210878 0.4513570758037758
-75.35465924895689 -7.588656404912425 0.44671530599907994
-74.85396383866481 -7.554434034568726 0.44208736327515863
-74.35326842837274 -7.519966648968322 0.4374734310334144
-73.85257301808066 -7.485253916899745 0.4328736926752267
-73.3518776077886 -7.450295507151552 0.42828833160200686
-72.85118219749653 -7.415091088512281 0.4237175312151361
-72.35048678720445 -7.379640329770468 0.41916147491601163
-71.84979137691238 -7.343942899714659 0.4146203461060288
-71.34909596662031 -7.307998467133399 0.41009432818658487
-70.84840055632823 -7.271806700815227 0.4055836045590645
-70.34770514603616 -7.23536726954869 0.4010883586248738
-69.8470097357441 -7.198679842122329 0.39660877378539394
-69.34631432545201 -7.161744087324675 0.3921450334420239
-68.84561891515995 -7.124559673944291 0.38769732099616616
-68.34492350486788 -7.087126270769706 0.3832658198492037
-67.8442280945758 -7.049443546589466 0.37885071340253373
-67.34353268428373 -7.0115111701921125 0.3744521850575516
-66.84283727399166 -6.973328810366188 0.37007041821564923
-66.34214186369958 -6.934896135900229 0.36570559627822197
-65.84144645340751 -6.896212815582797 0.36135790264666523
-65.34075104311543 -6.857278518202414 0.3570275207223691
-64.84005563282336 -6.818092912547624 0.3527146339067272
-64.3393602225313 -6.778655667406988 0.34841942560114025
-63.838664812239216 -6.738966451569028 0.34414207920699835
-63.33796940194715 -6.699024933822295 0.33988277812569334
-62.83727399165508 -6.658830782955335 0.3356417057586206
-62.336578581363 -6.618383667756686 0.3314190455071738
-61.83588317107093 -6.5776832570148835 0.3272149807727466
-61.335187760778865 -6.536729219518489 0.32302969495673783
-60.834492350486784 -6.4955212240560245 0.3188633714605341
-60.333796940194716 -6.454058939416041 0.31471619368553616
-59.83310152990265 -6.412342034387085 0.31058834503313404
-59.33240611961057 -6.3703701777577 0.3064800089047214
-58.8317107093185 -6.328143038316413 0.30239136870169003
-58.33101529902643 -6.28566028485178 0.29832260782544073
-57.83031988873435 -6.242921586152346 0.2942739096773618
-57.329624478442284 -6.1999266110066396 0.29024545765885035
-56.82892906815022 -6.156675028203218 0.2862374351712983
-56.328233657858135 -6.113166506530615 0.28225002561609924
-55.82753824756607 -6.069400714777374 0.2782834123946504
-55.326842837273986 -6.025377321732045 0.2743377789083453
-54.82614742698192 -5.981095996183158 0.2704133085585724
-54.32545201668985 -5.936556406919263 0.2665101847467305
-53.82475660639777 -5.891758222728904 0.2626285908742151
-53.3240611961057 -5.846701112400614 0.25876871034241444
-52.823365785813635 -5.801384744722946 0.2549307265527275
-52.322670375521554 -5.755808788484445 0.25111482290654796
-51.82197496522949 -5.709972912473639 0.24732118280526227
-51.321279554937405 -5.663876785479077 0.24354998965027652
-50.82058414464535 -5.617520076289307 0.239801426842979
-50.31988873435327 -5.5709024536928675 0.2360756777847598
-49.81919332406119 -5.524023586478298 0.23237292587701786
-49.318497913769136 -5.4768831434341445 0.2286933545211468
-48.817802503477054 -5.429480793348952 0.22503714711853495
-48.31710709318497 -5.381816205011252 0.2214044870705848
-47.81641168289292 -5.3338890472096 0.21779555777868642
-47.31571627260084 -5.2856989887325385 0.21421054264423167
-46.81502086230876 -5.237245698368597 0.21064962506861773
-46.3143254520167 -5.188528844906323 0.20711298845323645
-45.81363004172462 -5.139548097134271 0.20360081619948678
-45.31293463143254 -5.090303123840962 0.20011329170875702
-44.81223922114049 -5.0407935938149615 0.19665059838243726
-44.311543810848406 -4.991019175844795 0.19321291962193
-43.810848400556324 -4.94097953871901 0.1898004388286253
-43.31015299026427 -4.890674351226157 0.18641333940392213
-42.80945757997219 -4.840103282154762 0.18305180474920524
-42.30876216968011 -4.789266000293378 0.17971601826587535
-41.808066759388026 -4.738162174430543 0.1764061633553261
-41.30737134909597 -4.686791473354817 0.17312242341895112
-40.80667593880389 -4.635153565854712 0.16986498185814225
-40.30598052851181 -4.58324812071879 0.16663402207429134
-39.80528511821976 -4.531074806735604 0.16342972746879914
-39.304589707927676 -4.4786332926936625 0.16025228144305392
-38.803894297635594 -4.4259232473815375 0.1571018673984511
-38.30319888734354 -4.372944339587765 0.15397866873639143
-37.80250347705146 -4.319696238100879 0.15088286885825608
-37.30180806675938 -4.266178611709418 0.1478146511654458
-36.801112656467325 -4.212391129201959 0.1447741990593595
-36.30041724617524 -4.158333459367001 0.14176169594138555
-35.79972183588316 -4.104005270993103 0.1387773252129122
-35.29902642559111 -4.04940623286882 0.1358212702753473
-34.79833101529903 -3.9945360137826684 0.13289371453006849
-34.297635605006946 -3.9393942825232147 0.12999484137848538
-33.79694019471489 -3.883980707879002 0.12712483422198273
-33.29624478442281 -3.828294958638545 0.12428387646195593
-32.79554937413073 -3.7723367035904056 0.12147215149980395
-32.294853963838676 -3.716105611523145 0.1186898427369133
-31.794158553546595 -3.659601351225267 0.11593713357467939
-31.293463143254513 -3.60282359148533 0.11321420741450117
-30.79276773296246 -3.5457720010918985 0.11052124765777227
-30.29207232267038 -3.488446248833477 0.107858437705881
-29.791376912378297 -3.4308460034986306 0.10522596096021919
-29.290681502086244 -3.372970933875913 0.10262400082219292
-28.789986091794162 -3.314820708753829 0.10005274069318515
-28.28929068150208 -3.256394996920954 0.09751236397459484
-27.788595271210028 -3.197693467165821 0.0950030540678174
-27.287899860917946 -3.1387157882769694 0.09252499437424111
-26.787204450625865 -3.079461629042936 0.09007836829526139
-26.28650904033381 -3.019930658252286 0.08766335923228252
-25.78581363004173 -2.9601225446935375 0.08528015058668215
-25.28511821974965 -2.900036957155238 0.08292892575986632
-24.784422809457595 -2.839673564425948 0.08060986815322158
-24.283727399165514 -2.7790320352941764 0.07832316116814331
-23.783031988873432 -2.7181120385484983 0.07606898820603047
-23.28233657858135 -2.656913242977436 0.07384753266827315
-22.781641168289298 -2.595435317369547 0.07165897795626497
-22.280945757997216 -2.5336779305133534 0.06950350747140133
-21.780250347705135 -2.471640751197431 0.06738130461507585
-21.27955493741308 -2.4093234482102917 0.06529255278868396
-20.778859527121 -2.346725690340482 0.06323743539361393
-20.27816411682892 -2.283847146376556 0.06121613583126473
-19.777468706536865 -2.2206874851070433 0.05922883750303354
-19.276773296244784 -2.1572463753204945 0.057275723810308654
-18.776077885952702 -2.09352348580546 0.055356978154478376
-18.27538247566065 -2.0295184853504624 0.05347278393695232
-17.774687065368568 -1.9652310427440627 0.051623324559117
-17.273991655076486 -1.900660826774783 0.049808783422360725
-16.773296244784433 -1.8358075062311956 0.04802934392808422
-16.27260083449235 -1.7706707499018082 0.04628518947767757
-15.77190542420027 -1.7052502265751963 0.04457650347253794
-15.271210013908217 -1.6395456050398787 0.0429034693140572
-14.770514603616135 -1.5735565540844023 0.04126627040362896
-14.269819193324054 -1.5072827424973214 0.039665090142650405
-13.769123783032 -1.4407238390671617 0.03810011193251517
-13.268428372739919 -1.373879512582481 0.03657151917460977
-12.767732962447838 -1.3067494318318014 0.035079495270336714
-12.267037552155784 -1.2393332656036948 0.03362422362108963
-11.766342141863703 -1.1716306826866871 0.0322058876282586
-11.265646731571621 -1.1036413518693111 0.030824670693235467
-10.764951321279568 -1.035364941940128 0.029480756217420967
-10.264255910987487 -0.9668011216876637 0.028174327602205174
-9.763560500695405 -0.8979495599004723 0.02690556824897994
-9.262865090403352 -0.8288099253670937 0.02567466155914422
-8.76216968011127 -0.759381886876068 0.02448179093409164
-8.261474269819189 -0.6896651132159421 0.023327139775210504
