Polar data for a18sm at Re = 1794137.931034483
Alpha (deg) Cl Cd
-180.0 -13.170080492989733 3.625718801379553
-179.49930458970792 -13.166500754961923 3.6181244586936936
-178.99860917941587 -13.162671039709029 3.610463434141617
-178.49791376912378 -13.15859182618787 3.602736162170433
-177.9972183588317 -13.154263593355285 3.5949430772272484
-177.49652294853965 -13.149686820168082 3.587084613759166
-176.99582753824757 -13.144861985583091 3.5791612062132936
-176.4951321279555 -13.139789568557145 3.5711732890367403
-175.99443671766343 -13.134470048047064 3.563121296676612
-175.49374130737135 -13.128903903009675 3.5550056635800162
-174.99304589707927 -13.123091612401812 3.546826824194059
-174.49235048678722 -13.117033655180283 3.5385852129658444
-173.99165507649514 -13.110730510301927 3.530281264342478
-173.49095966620305 -13.104182656723562 3.5219154127710715
-172.990264255911 -13.09739057340202 3.5134880926987266
-172.48956884561892 -13.090354739294124 3.504999738572553
-171.98887343532684 -13.083075633356703 3.496450784839662
-171.48817802503476 -13.075553734546574 3.487841665947145
-170.9874826147427 -13.067789521820576 3.479172816342124
-170.48678720445062 -13.05978347413551 3.4704446704716974
-169.98609179415854 -13.051536070448233 3.4616576627829785
-169.4853963838665 -13.043047789715548 3.452812227723066
-168.9847009735744 -13.034319110894298 3.443908799739071
-168.48400556328232 -13.025350512941298 3.4349478132780957
-167.98331015299027 -13.016142474813375 3.4259297027872533
-167.4826147426982 -13.006695475467357 3.4168549027136477
-166.9819193324061 -12.997009993860065 3.4077238475043847
-166.48122392211405 -12.987086508948323 3.3985369716065668
-165.98052851182197 -12.97692549968897 3.3892947094673103
-165.4798331015299 -12.966527445038817 3.379997495533714
-164.97913769123784 -12.955892823954695 3.3706457642528838
-164.47844228094576 -12.945022115393435 3.361239950071936
-163.97774687065368 -12.933915798311851 3.3517804874379626
-163.47705146036162 -12.922574351666778 3.3422678107980834
-162.97635605006954 -12.910998254415038 3.3327023545993972
-162.47566063977746 -12.899187985513464 3.32308455328901
-161.9749652294854 -12.887144023918871 3.3134148413140414
-161.47426981919332 -12.874866848588088 3.303693653121571
-160.97357440890124 -12.862356938477948 3.2939214231587366
-160.4728789986092 -12.849614772545262 3.284098585872626
-159.9721835883171 -12.836640829746866 3.274225575710349
-159.47148817802503 -12.823435589039587 3.2643028271190113
-158.97079276773297 -12.809999529380253 3.2543307745457293
-158.4700973574409 -12.796333129725678 3.244309852437593
-157.9694019471488 -12.78243686903269 3.2342404952417203
-157.46870653685676 -12.768311226258124 3.224123137405214
-156.96801112656468 -12.753956680358797 3.2139582133751885
-156.4673157162726 -12.739373710291542 3.203746157598734
-155.96662030598054 -12.724562795013181 3.1934874045229753
-155.46592489568846 -12.709524413480526 3.183182388595003
-154.96522948539638 -12.694259044650426 3.1728315442619346
-154.46453407510432 -12.678767167479698 3.1624353059708765
-153.96383866481224 -12.663049260925163 3.1519941081689273
-153.46314325452016 -12.647105803943656 3.1415083853031964
-152.9624478442281 -12.630937275491995 3.1309785718208003
-152.46175243393603 -12.614544154527007 3.120405102168829
-151.96105702364395 -12.597926920005516 3.109788410794402
-151.4603616133519 -12.581086050884348 3.0991289321446187
-150.9596662030598 -12.564022026120334 3.0884271006665935
-150.45897079276773 -12.546735324670298 3.0776833508074253
-149.95827538247568 -12.529226425491064 3.0668981170142215
-149.4575799721836 -12.511495807539447 3.0560718337340864
-148.9568845618915 -12.493543949772288 3.0452049354141364
-148.45618915159943 -12.47537133114642 3.0342978565014738
-147.95549374130738 -12.456978430618644 3.023351031443201
-147.4547983310153 -12.438365727145804 3.012364894686427
-146.95410292072324 -12.419533699684717 3.001339880678258
-146.45340751043116 -12.400482827192217 2.9902764238657964
-145.95271210013908 -12.381213588625112 2.9791749586961584
-145.452016689847 -12.361726462940243 2.9680359196164465
-144.95132127955495 -12.34202192909444 2.9568597410737647
-144.45062586926286 -12.322100466044514 2.945646857515224
-143.94993045897078 -12.301962552747302 2.934397703387922
-143.44923504867873 -12.281608668159624 2.9231127131389725
-142.94853963838665 -12.261039291238308 2.911792321215489
-142.44784422809457 -12.240254900940183 2.9004369620645667
-141.9471488178025 -12.219255976222069 2.8890470701333113
-141.44645340751043 -12.198042996040787 2.877623079868834
-140.94575799721835 -12.176616439353172 2.866165425718239
-140.44506258692627 -12.154976785116038 2.854674542128641
-139.94436717663422 -12.133124512286233 2.8431508635471383
-139.44367176634213 -12.111060099820566 2.8315948244208444
-138.94297635605005 -12.088784026675864 2.8200068591968526
-138.442280945758 -12.066296771808954 2.808387402322281
-137.94158553546592 -12.043598814176665 2.7967368882442356
-137.44089012517384 -12.02069063273581 2.785055751409817
-136.94019471488178 -11.99757270644324 2.7733444262661378
-136.4394993045897 -11.97424551425576 2.761603347260304
-135.93880389429762 -11.950709535130198 2.749832948839418
-135.43810848400557 -11.926965248023382 2.738033665450586
-134.9374130737135 -11.903013131892141 2.72620593154092
-134.4367176634214 -11.878853665693288 2.7143501815575197
-133.93602225312935 -11.854487328383673 2.702466849947501
-133.43532684283727 -11.829914598920102 2.690556371157963
-132.9346314325452 -11.80513595625941 2.678619179636015
-132.43393602225314 -11.780151879358403 2.6666557098287624
-131.93324061196105 -11.754962847173925 2.654666396183308
-131.43254520166897 -11.729569338662817 2.642651673146765
-130.93184979137692 -11.703971832781871 2.6306119751662456
-130.43115438108484 -11.67817080848793 2.6185477366888383
-129.93045897079276 -11.65216674473783 2.6064593921616668
-129.4297635605007 -11.625960120488376 2.5943473760318296
-128.92906815020862 -11.59955141469639 2.582212122746429
-128.42837273991654 -11.572941106318734 2.570054066752582
-127.92767732962449 -11.546129674312194 2.5578736424973867
-127.4269819193324 -11.519117597633613 2.54567128442796
-126.92628650904032 -11.491905355239812 2.533447426991393
-126.42559109874827 -11.464493426087625 2.5212025046348066
-125.92489568845619 -11.436882289133873 2.5089369518052953
-125.42420027816411 -11.40907242333537 2.4966512029499794
-124.92350486787205 -11.381064307648959 2.484345692515954
-124.42280945757997 -11.352858421031467 2.472020854950329
-123.92211404728789 -11.324455242439708 2.4596771247002165
-123.42141863699584 -11.29585525083051 2.4473149362127122
-122.92072322670376 -11.2670589251607 2.434934723934929
-122.42002781641168 -11.238066744387101 2.4225369223139728
-121.91933240611961 -11.208879187466554 2.4101219657969564
-121.41863699582754 -11.179496733355865 2.3976902888309786
-120.91794158553546 -11.149919861011863 2.385242325863145
-120.41724617524339 -11.120149049391383 2.372778511340562
-119.91655076495132 -11.090184777451245 2.360299279710346
-119.41585535465924 -11.060027524148271 2.347805065419595
-118.91515994436718 -11.029677768439296 2.3352963029154195
-118.41446453407511 -10.999135989281132 2.3227734266449174
-117.91376912378303 -10.96840266563063 2.3102368710552055
-117.41307371349096 -10.93747827644459 2.297687070593393
-116.91237830319889 -10.906363300679846 2.2851244597065685
-116.41168289290681 -10.875058217293219 2.2725494728418516
-115.91098748261474 -10.843563505241544 2.259962544446352
-115.41029207232268 -10.81187964348165 2.2473641089671785
-114.9095966620306 -10.780007110970342 2.23475460085142
-114.40890125173853 -10.74794638666447 2.222134454546196
-113.90820584144646 -10.715697949520841 2.2095041044986123
-113.40751043115438 -10.68326227849629 2.1968639851557716
-112.90681502086231 -10.650639852547645 2.1842145309647867
-112.40611961057024 -10.617831150631726 2.1715561763727598
-111.90542420027816 -10.584836651705356 2.1588893558267968
-111.4047287899861 -10.551656834725375 2.146214503774014
-110.90403337969401 -10.51829217864859 2.1335320546614964
-110.40333796940195 -10.48474316243183 2.120842442936371
-109.90264255910988 -10.451010265031936 2.1081461030457325
-109.4019471488178 -10.417093965405716 2.0954434694367015
-108.90125173852573 -10.382994742510004 2.082734976556366
-108.40055632823366 -10.348713075301635 2.0700210588518493
-107.89986091794158 -10.31424944273741 2.0573021507702434
-107.39916550764951 -10.27960432377419 2.044578686758668
-106.89847009735745 -10.24477819736877 2.031851101264219
-106.39777468706536 -10.209771542477977 2.0191198287340084
-105.8970792767733 -10.174584838058653 2.0063853036151427
-105.39638386648123 -10.139218563067619 1.9936479603547275
-104.89568845618915 -10.103673196461688 1.980908233399865
-104.39499304589708 -10.067949217197711 1.9681665571976756
-103.89429763560501 -10.032047104232493 1.9554233661952543
-103.39360222531293 -9.995967336522856 1.9426790948397068
-102.89290681502086 -9.959710393025635 1.9299341775781427
-102.3922114047288 -9.92327675269767 1.9171890488576713
-101.89151599443672 -9.88666689449575 1.9044441431253913
-101.39082058414465 -9.849881297376744 1.891699894828423
-100.89012517385257 -9.812920440297443 1.8789567384138577
-100.3894297635605 -9.775784802214691 1.866215108328812
-99.88873435326843 -9.738474862085315 1.8534754390203885
-99.38803894297635 -9.700991098866123 1.8407381649356926
-98.88734353268428 -9.663333991513948 1.828003720521827
-98.38664812239222 -9.625504018985634 1.8152725402259149
-97.88595271210013 -9.587501660237987 1.8025450584950482
-97.38525730180807 -9.549327394227841 1.7898217097763398
-96.884561891516 -9.510981699912012 1.7771029285168956
-96.38386648122392 -9.472465056247334 1.7643891491638142
-95.88317107093185 -9.433777942190634 1.7516808061642122
-95.38247566063978 -9.394920836698734 1.7389783339651919
-94.8817802503477 -9.355894218728448 1.726282167013859
-94.38108484005564 -9.316698567236624 1.7135927397573196
-93.88038942976357 -9.277334361180085 1.7009104866426865
-93.37969401947149 -9.237802079515635 1.6882358421170514
-92.87899860917942 -9.198102201200125 1.6755692406275378
-92.37830319888734 -9.158235205190369 1.6629111166212516
-91.87760778859527 -9.118201570443194 1.6502619045452844
-91.3769123783032 -9.078001775915428 1.6376220388467635
-90.87621696801112 -9.037636300563879 1.6249919539727733
-90.37552155771905 -8.997105623345401 1.6123720843704303
-89.87482614742699 -8.956410223216803 1.5997628644868511
-89.3741307371349 -8.915550579134905 1.5871647287691202
-88.87343532684284 -8.874527170056549 1.5745781116643647
-88.37273991655077 -8.833340474938563 1.5620034476196833
-87.87204450625869 -8.79199097273776 1.5494411710821892
-87.37134909596662 -8.75047914241095 1.5368917164989595
-86.87065368567455 -8.708805462914999 1.5243555183171429
-86.36995827538247 -8.666970413206695 1.5118330109838203
-85.8692628650904 -8.62497447224288 1.4993246289461117
-85.36856745479834 -8.582818118980395 1.4868308066511124
-84.86787204450626 -8.54050183237604 1.4743519785459283
-84.36717663421419 -8.498026091386645 1.4618885790776686
-83.86648122392211 -8.455391374969057 1.449441042693457
-83.36578581363004 -8.412598162080084 1.4370098038403745
-82.86509040333797 -8.369646931676531 1.4245952969655375
-82.36439499304589 -8.326538162715263 1.4121979565160627
-81.86369958275382 -8.283272334153093 1.3998182169390416
-81.36300417246176 -8.239849924946835 1.38745651268158
-80.86230876216968 -8.196271414053324 1.3751132781907947
-80.36161335187761 -8.152537280429389 1.3627889479137911
-79.86091794158554 -8.108648003031842 1.3504839562976718
-79.36022253129346 -8.064604060817526 1.3381987377895497
-78.85952712100139 -8.020405932743255 1.3259337268365199
-78.35883171070932 -7.97605409776585 1.3136893578856919
-77.85813630041724 -7.931549034842146 1.3014660653841856
-77.35744089012518 -7.886891222928984 1.2892642837790929
-76.85674547983311 -7.842081140983158 1.27708444751753
-76.35605006954103 -7.797119267961509 1.264926991046596
-75.85535465924896 -7.752006082820866 1.2527923488133892
-75.35465924895689 -7.70674206451805 1.2406809552650406
-74.85396383866481 -7.661327692009888 1.2285932448486383
-74.35326842837274 -7.615763444253208 1.2165296520113023
-73.85257301808066 -7.570049800204817 1.2044906112001206
-73.3518776077886 -7.524187238821579 1.192476556862224
-72.85118219749653 -7.478176239060279 1.1804879234446863
-72.35048678720445 -7.4320172798777655 1.1685251453946384
-71.84979137691238 -7.385710840230853 1.156588657159186
-71.34909596662031 -7.339257399076384 1.1446788931854313
-70.84840055632823 -7.292657435371172 1.1327962879204803
-70.34770514603616 -7.245911428072066 1.1209412758114423
-69.8470097357441 -7.1990198561358305 1.109114291305409
-69.34631432545201 -7.15198319851935 1.0973157688495077
-68.84561891515995 -7.104801934179438 1.085546142890844
-68.34492350486788 -7.057476542072916 1.0738058478765131
-67.8442280945758 -7.010007501156604 1.0620953182536175
-67.34353268428373 -6.962395290387317 1.050414988469277
-66.84283727399166 -6.914640388721903 1.0387652929705942
-66.34214186369958 -6.866743275117184 1.0271466662046675
-65.84144645340751 -6.818704428529966 1.0155595426186208
-65.34075104311543 -6.770524327917105 1.0040043566595456
-64.84005563282336 -6.722203452235409 0.9924815427745548
-64.3393602225313 -6.673742280441697 0.9809915354107472
-63.838664812239216 -6.625141291492806 0.9695347690152429
-63.33796940194715 -6.576400964345563 0.9581116780351406
-62.83727399165508 -6.527521777956789 0.9467226969175391
-62.336578581363 -6.478504211283305 0.9353682601095548
-61.83588317107093 -6.429348743281945 0.9240488020583006
-61.335187760778865 -6.380055852909546 0.9127647572108719
-60.834492350486784 -6.3306260191229065 0.901516560014378
-60.333796940194716 -6.281059720878861 0.8903046449159246
-59.83310152990265 -6.231357437134253 0.8791294463626214
-59.33240611961057 -6.1815196468458815 0.8679913988015739
-58.8317107093185 -6.131546828970588 0.8568909366798882
-58.33101529902643 -6.081439462465195 0.845828494444663
-57.83031988873435 -6.031198026286528 0.834804506543029
-57.329624478442284 -5.9808229993914175 0.823819407422067
-56.82892906815022 -5.930314860736683 0.8128736315288831
-56.328233657858135 -5.879674089279153 0.8019676133106115
-55.82753824756607 -5.8289011639756545 0.7911017872143331
-55.326842837273986 -5.777996563783017 0.7802765876871645
-54.82614742698192 -5.72696076765806 0.7694924491762043
-54.32545201668985 -5.675794254557577 0.7587498061285585
-53.82475660639777 -5.624497503438452 0.7480490929913506
-53.3240611961057 -5.573070993257485 0.7373907442116758
-52.823365785813635 -5.5215152029714964 0.7267751942366436
-52.322670375521554 -5.469830611537322 0.7162028775133562
-51.82197496522949 -5.4180176979117896 0.7056742284889266
-51.321279554937405 -5.366076941051698 0.6951896816104464
-50.82058414464535 -5.314008819913912 0.6847496713250427
-50.31988873435327 -5.26181381345523 0.6743546320798037
-49.81919332406119 -5.209492400632481 0.6640049983218601
-49.318497913769136 -5.157045060402506 0.6537012044982928
-48.817802503477054 -5.104472271722113 0.6434436850562113
-48.31710709318497 -5.051774513548114 0.633232874442732
-47.81641168289292 -4.998952264837367 0.6230692071049608
-47.31571627260084 -4.946006004546714 0.6129531174900071
-46.81502086230876 -4.892936211632918 0.6028850400449661
-46.3143254520167 -4.8397433650528505 0.5928654092169614
-45.81363004172462 -4.786427943763332 0.582894659453081
-45.31293463143254 -4.732990426721184 0.5729732252004487
-44.81223922114049 -4.679431292883226 0.5631015409061453
-44.311543810848406 -4.625751021206295 0.5532800410173087
-43.810848400556324 -4.571950090647189 0.5435091599810269
-43.31015299026427 -4.518028980162764 0.5337893322444094
-42.80945757997219 -4.463988168709829 0.5241209922545584
-42.30876216968011 -4.409828135245231 0.5145045744585941
-41.808066759388026 -4.355549358725764 0.5049405133036045
-41.30737134909597 -4.30115231810829 0.49542924323670956
-40.80667593880389 -4.246637492349603 0.4859711987050188
-40.30598052851181 -4.192005360406537 0.4765668141556274
-39.80528511821976 -4.137256401235941 0.4672165240356554
-39.304589707927676 -4.082391093794623 0.45792076279219796
-38.803894297635594 -4.027409917039389 0.44867996487236095
-38.30319888734354 -3.972313349927102 0.43949456472325377
-37.80250347705146 -3.9171018714145553 0.43036499679198936
-37.30180806675938 -3.8617759604585693 0.4212916955256665
-36.801112656467325 -3.8063360960160217 0.4122750953713945
-36.30041724617524 -3.750782757043705 0.4033156307762793
-35.79972183588316 -3.695116422498412 0.3944137361874267
-35.29902642559111 -3.639337571337034 0.3855698460519461
-34.79833101529903 -3.5834466825163354 0.3767843948169398
-34.297635605006946 -3.527444234993194 0.3680578169295208
-33.79694019471489 -3.4713307077244018 0.35939054683679483
-33.29624478442281 -3.4151065796667943 0.3507830189858572
-32.79554937413073 -3.3587723297772065 0.34223566782383497
-32.294853963838676 -3.302328437012445 0.33374892779780563
-31.794158553546595 -3.245775380329345 0.32532323335490343
-31.293463143254513 -3.1891136386847414 0.31695901894222356
-30.79276773296246 -3.132343691035455 0.3086567190068754
-30.29207232267038 -3.075466016338293 0.3004167679959613
-29.791376912378297 -3.01848109355009 0.2922396003565835
-29.290681502086244 -2.9613894016277094 0.2841256505358585
-28.789986091794162 -2.9041914195279013 0.27607535298088504
-28.28929068150208 -2.8468876262075575 0.26808914213877966
-27.788595271210028 -2.789478500623485 0.2601674524566553
-27.287899860917946 -2.7319645217324897 0.2523107183815787
-26.787204450625865 -2.6743461684914216 0.24451937436070548
-26.28650904033381 -2.6166239198571297 0.23679385484111304
-25.78581363004173 -2.558798254786364 0.22913459426992144
-25.28511821974965 -2.500869652236016 0.22154202709422588
-24.784422809457595 -2.4428385911628787 0.21401658776114285
-24.283727399165514 -2.384705550523787 0.206558710717764
-23.783031988873432 -2.3264710092755614 0.19916883041122357
-23.28233657858135 -2.268135446375066 0.19184738128859902
-22.781641168289298 -2.20969934077905 0.18459479779701038
-22.280945757997216 -2.15116317144442 0.17741151438356706
-21.780250347705135 -2.092527417327954 0.17029796549536425
-21.27955493741308 -2.0337925573865014 0.1632545855795291
-20.778859527121 -1.9749590705768405 0.15628180908313904
-20.27816411682892 -1.916027435855863 0.14938007045332835
-19.777468706536865 -1.8569981321803475 0.14254980413718155
-19.276773296244784 -1.7978716385071571 0.1357914445818258
-18.776077885952702 -1.7386484337930703 0.12910542623434562
-18.27538247566065 -1.6793289969949505 0.12249218354186464
-17.774687065368568 -1.6199138070696044 0.1159521509514887
-17.273991655076486 -1.5604033429738813 0.10948576291031653
-16.773296244784433 -1.5007980836645736 0.1030934538654611
-16.27260083449235 -1.4410985080985306 0.09677565826401757
-15.77190542420027 -1.3813050952325732 0.09053281055310958
-15.271210013908217 -1.3214183240235364 0.08436534517982519
-14.770514603616135 -1.2614386734282128 0.07827369659128802
-14.269819193324054 -1.20136662240348 0.07225829923459681
-13.769123783032 -1.141202649906102 0.06631958755685385
-13.268428372739919 -1.0809472348929283 0.060457996005168546
-12.767732962447838 -1.0206008563208222 0.054673959026660945
-12.267037552155784 -0.960163993146562 0.04896791106841558
-11.766342141863703 -0.8996371243269827 0.04334028657754896
-11.265646731571621 -0.8390207288189337 0.03779152000117403
-10.764951321279568 -0.7783152855792359 0.03232204578638953
-10.264255910987487 -0.7175212735646816 0.02693229838030131
-9.763560500695405 -0.6566489568845613 0.021613741307371294
-9.262865090403352 -0.594815855354661 0.01735924895688465
-8.76216968011127 -0.5311674547983316 0.014879054242002799
-8.261474269819189 -0.4677751043115433 0.013200111265646719
-7.760778859527136 -0.4046796940194734 0.011988539638386673
