Polar data for 2 at Re = 271428.5714285715
Alpha (deg) Cl Cd
-180.0 -12.013262900602692 1.5892600240588939
-179.49930458970792 -12.018573849580383 1.5853641945924561
-178.99860917941587 -12.023672630149582 1.5814412734228958
-178.49791376912378 -12.028559142114984 1.5774914645316667
-177.9972183588317 -12.033233285281268 1.5735149719002237
-177.49652294853965 -12.037694959453125 1.5695119995100235
-176.99582753824757 -12.04194406443523 1.5654827513425191
-176.4951321279555 -12.04598050003228 1.5614274313791672
-175.99443671766343 -12.04980416604895 1.5573462436014216
-175.49374130737135 -12.05341496228993 1.553239391990739
-174.99304589707927 -12.056812788559904 1.5491070805285752
-174.49235048678722 -12.059997544663558 1.5449495131963804
-173.99165507649514 -12.062969130405572 1.5407668939756158
-173.49095966620305 -12.065727445590637 1.5365594268477327
-172.990264255911 -12.068272390023433 1.5323273157941868
-172.48956884561892 -12.07060386350865 1.5280707647964338
-171.98887343532684 -12.072721765850968 1.5237899778359294
-171.48817802503476 -12.074625996855076 1.5194851588941258
-170.9874826147427 -12.076316456325653 1.5151565119524832
-170.48678720445062 -12.07779304406739 1.5108042409924511
-169.98609179415854 -12.079055659884968 1.506428549995488
-169.4853963838665 -12.080104203583078 1.5020296429430484
-168.9847009735744 -12.080938574966394 1.4976077238165857
-168.48400556328232 -12.081558673839615 1.4931629965975572
-167.98331015299027 -12.081964400007413 1.4886956652674188
-167.4826147426982 -12.08215565327448 1.4842059338076226
-166.9819193324061 -12.082132333445497 1.4796940061996242
-166.48122392211405 -12.081894340325153 1.4751600864248804
-165.98052851182197 -12.08144157371813 1.470604378464846
-165.4798331015299 -12.080773933429116 1.4660270863009757
-164.97913769123784 -12.079891319262789 1.4614284139147218
-164.47844228094576 -12.078793631023842 1.4568085652875453
-163.97774687065368 -12.077480768516951 1.4521677444008958
-163.47705146036162 -12.075952631546812 1.4475061552362298
-162.97635605006954 -12.074209119918102 1.442824001775005
-162.47566063977746 -12.07225013343551 1.438121487998675
-161.9749652294854 -12.070075571903716 1.4333988178886932
-161.47426981919332 -12.06768533512741 1.428656195426516
-160.97357440890124 -12.06507932291127 1.4238938245935984
-160.4728789986092 -12.062257435059994 1.419111909371396
-159.9721835883171 -12.059219571378252 1.4143106537413628
-159.47148817802503 -12.05596563167074 1.4094902616849554
-158.97079276773297 -12.052495515742136 1.4046509371836295
-158.4700973574409 -12.048809123397128 1.3997928842188365
-157.9694019471488 -12.044906354440394 1.394916306772033
-157.46870653685676 -12.040787108676634 1.3900214088246745
-156.96801112656468 -12.036451285910516 1.3851083943582188
-156.4673157162726 -12.031898785946739 1.3801774673541178
-155.96662030598054 -12.02712950858998 1.3752288317938275
-155.46592489568846 -12.022143353644926 1.3702626916588017
-154.96522948539638 -12.016940220916258 1.365279250930496
-154.46453407510432 -12.011520010208669 1.3602787135903682
-153.96383866481224 -12.005882621326833 1.3552612836198712
-153.46314325452016 -12.000027954075449 1.3502271650004598
-152.9624478442281 -11.993955908259188 1.345176561713588
-152.46175243393603 -11.987666383682747 1.3401096777407142
-151.96105702364395 -11.981159280150802 1.3350267170632906
-151.4603616133519 -11.974434497468039 1.3299278836627737
-150.9596662030598 -11.967491935439142 1.3248133815206193
-150.45897079276773 -11.960331493868804 1.3196834146182796
-149.95827538247568 -11.952953072561705 1.3145381869372121
-149.4575799721836 -11.945356571322524 1.3093779024588708
-148.9568845618915 -11.937541889955956 1.3042027651647095
-148.45618915159943 -11.929508928266678 1.2990129790361884
-147.95549374130738 -11.921257586059376 1.293808748054757
-147.4547983310153 -11.912787763138745 1.2885902762018757
-146.95410292072324 -11.904099359309456 1.2833577674589938
-146.45340751043116 -11.8951922743762 1.2781114258075705
-145.95271210013908 -11.886066408143662 1.2728514552290582
-145.452016689847 -11.876721660416528 1.2675780597049124
-144.95132127955495 -11.867157930999483 1.2622914432165908
-144.45062586926286 -11.85737511969721 1.2569918097455455
-143.94993045897078 -11.84737312631438 1.251679363273233
-143.44923504867873 -11.837151850655705 1.2463543077811083
-142.94853963838665 -11.826711192525856 1.2410168472506298
-142.44784422809457 -11.81605105172952 1.2356671856632433
-141.9471488178025 -11.805171328071378 1.2303055270004135
-141.44645340751043 -11.794071921356117 1.2249320752435908
-140.94575799721835 -11.782752731388427 1.219547034374231
-140.44506258692627 -11.771213657972986 1.2141506083737896
-139.94436717663422 -11.75945460091448 1.2087430012237208
-139.44367176634213 -11.7474754600176 1.203324416905481
-138.94297635605005 -11.735276135087016 1.197895059400527
-138.442280945758 -11.722856525927433 1.1924551326903083
-137.94158553546592 -11.71021653234352 1.187004840756285
-137.44089012517384 -11.69735605413997 1.1815443875799092
-136.94019471488178 -11.684274991121466 1.1760739771426385
-136.4394993045897 -11.670973243092693 1.170593813425925
-135.93880389429762 -11.657450709858335 1.1651041004112273
-135.43810848400557 -11.643707291223077 1.1596050420799973
-134.9374130737135 -11.629742886991604 1.1540968424136908
-134.4367176634214 -11.615557396968601 1.1485797053937636
-133.93602225312935 -11.601150720958756 1.1430538350016741
-133.43532684283727 -11.586522758766751 1.137519435218871
-132.9346314325452 -11.571673410197263 1.131976710026814
-132.43393602225314 -11.556602575054992 1.126425863406956
-131.93324061196105 -11.541310153144607 1.1208670993407521
-131.43254520166897 -11.525796044270813 1.1153006218096557
-130.93184979137692 -11.510060148238278 1.1097266347951287
-130.43115438108484 -11.494102364851692 1.1041453422786178
-129.93045897079276 -11.477922593915743 1.098556948241586
-129.4297635605007 -11.461520735235112 1.0929616566654836
-128.92906815020862 -11.444896688614485 1.0873596715317637
-128.42837273991654 -11.428050353858549 1.0817511968218847
-127.92767732962449 -11.410981630771982 1.0761364365173023
-127.4269819193324 -11.393690419159476 1.0705155945994704
-126.92628650904032 -11.376176618825706 1.0648888750498413
-126.42559109874827 -11.358440129575381 1.059256481849876
-125.92489568845619 -11.340480851213155 1.0536186189810257
-125.42420027816411 -11.322298683543735 1.0479754904247445
-124.92350486787205 -11.303893526371795 1.0423273001624915
-124.42280945757997 -11.285265279502024 1.0366742521757173
-123.92211404728789 -11.266413842739109 1.031016550445881
-123.42141863699584 -11.247339115887726 1.0253543989544367
-122.92072322670376 -11.228040998752569 1.0196880016828356
-122.42002781641168 -11.208519391138317 1.014017562612536
-121.91933240611961 -11.188774192849664 1.0083432857249948
-121.41863699582754 -11.168805303691283 1.0026653750016665
-120.91794158553546 -11.148612623467859 0.996984034424
-120.41724617524339 -11.128196051984094 0.9912994679734597
-119.91655076495132 -11.10755548904465 0.9856118796314925
-119.41585535465924 -11.086690834454231 0.9799214733795596
-118.91515994436718 -11.065601988017512 0.974228453199113
-118.41446453407511 -11.044288849539175 0.9685330230716085
-117.91376912378303 -11.022751318823918 0.9628353869785
-117.41307371349096 -11.000989295676412 0.9571357489012469
-116.91237830319889 -10.979002679901352 0.9514343128212976
-116.41168289290681 -10.956791371303417 0.9457312827201116
-115.91098748261474 -10.934355269687295 0.9400268625791428
-115.41029207232268 -10.911694274857666 0.9343212563798504
-114.9095966620306 -10.888808286619213 0.9286146681036795
-114.40890125173853 -10.865697204776637 0.9229073017320948
-113.90820584144646 -10.8423609291346 0.9171993612465466
-113.40751043115438 -10.818799359497802 0.9114910506284906
-112.90681502086231 -10.79501239567093 0.9057825738593843
-112.40611961057024 -10.770999937458658 0.9000741349206818
-111.90542420027816 -10.74676188466568 0.8943659377938351
-111.4047287899861 -10.72229813709668 0.8886581864603036
-110.90403337969401 -10.697608594556332 0.8829510849015394
-110.40333796940195 -10.672693156849341 0.877244837099
-109.90264255910988 -10.64755172378037 0.8715396470341341
-109.4019471488178 -10.622184195154116 0.8658357186884063
-108.90125173852573 -10.596590470775261 0.8601332560432668
-108.40055632823366 -10.5707704504485 0.8544324630801734
-107.89986091794158 -10.544724033978497 0.848733543780571
-107.39916550764951 -10.518451121169953 0.8430367021259313
-106.89847009735745 -10.491951611827549 0.8373421420976941
-106.39777468706536 -10.465225405755966 0.8316500676773222
-105.8970792767733 -10.438272402759896 0.8259606828462731
-105.39638386648123 -10.411092502644017 0.8202741915859972
-104.89568845618915 -10.383685605213017 0.8145907978779485
-104.39499304589708 -10.356051610271585 0.8089107057035863
-103.89429763560501 -10.328190417624405 0.8032341190443608
-103.39360222531293 -10.300101927076145 0.7975612418817315
-102.89290681502086 -10.271786038431507 0.791892278197154
-102.3922114047288 -10.243242651495187 0.786227431972077
-101.89151599443672 -10.214471666071837 0.7805669071879597
-101.39082058414465 -10.185472981966171 0.7749109078262633
-100.89012517385257 -10.156246498982863 0.7692596378684344
-100.3894297635605 -10.126792116926595 0.7636133012959254
-99.88873435326843 -10.097109735602054 0.7579721020902026
-99.38803894297635 -10.067199254813925 0.7523362442327128
-98.88734353268428 -10.037060574366901 0.7467059317049136
-98.38664812239222 -10.006693594065656 0.7410813684882624
-97.88595271210013 -9.97609821371487 0.7354627585642097
-97.38525730180807 -9.945274333119247 0.7298503059142094
-96.884561891516 -9.914221852083458 0.7242442145197261
-96.38386648122392 -9.88294067041219 0.7186446883622031
-95.88317107093185 -9.851430687910131 0.713051931423105
-95.38247566063978 -9.819691804381964 0.7074661476838839
-94.8817802503477 -9.787723919632374 0.7018875411259886
-94.38108484005564 -9.755526933466047 0.6963163157308818
-93.88038942976357 -9.723100745687663 0.6907526754800157
-93.37969401947149 -9.690445256101906 0.6851968243548443
-92.87899860917942 -9.657560364513476 0.6796489663368286
-92.37830319888734 -9.624445970727045 0.6741093054074172
-91.87760778859527 -9.591101974547293 0.6685780455480694
-91.3769123783032 -9.557528275778918 0.6630553907402357
-90.87621696801112 -9.523724774226594 0.6575415449653734
-90.37552155771905 -9.48969136969502 0.6520367122049384
-89.87482614742699 -9.455427961988867 0.6465410964403864
-89.3741307371349 -9.420934450912824 0.641054901653173
-88.87343532684284 -9.386210736271579 0.6355783318247488
-88.37273991655077 -9.351256717869813 0.6301115909365729
-87.87204450625869 -9.316072295512214 0.6246548829700975
-87.37134909596662 -9.280657369003453 0.6192084119067784
-86.87065368567455 -9.245011838148248 0.6137723817280785
-86.36995827538247 -9.20913560275125 0.6083469964154391
-85.8692628650904 -9.173028562617155 0.6029324599503267
-85.36856745479834 -9.13669061755066 0.5975289763141935
-84.86787204450626 -9.10012166735643 0.5921367494884864
-84.36717663421419 -9.063321611839164 0.5867559834546716
-83.86648122392211 -9.026290350803546 0.5813868821941979
-83.36578581363004 -8.989027784054255 0.5760296496885244
-82.86509040333797 -8.95153381139598 0.5706844899191035
-82.36439499304589 -8.913808332633401 0.5653516068673925
-81.86369958275382 -8.875851247571209 0.5600312045148419
-81.36300417246176 -8.837662456014076 0.554723486842911
-80.86230876216968 -8.79924185776671 0.5494286578330501
-80.36161335187761 -8.760589352633783 0.5441469214667238
-79.86091794158554 -8.721704840419964 0.5388784817253791
-79.36022253129346 -8.682588220929969 0.5336235425904698
-78.85952712100139 -8.643239393968457 0.5283823080434553
-78.35883171070932 -8.60365825934013 0.5231549820657895
-77.85813630041724 -8.563844716849665 0.5179417686389298
-77.35744089012518 -8.523798666301754 0.5127428717443339
-76.85674547983311 -8.48352000750107 0.5075584953634449
-76.35605006954103 -8.443008640252302 0.5023888434777257
-75.85535465924896 -8.40226446436014 0.4972341200686321
-75.35465924895689 -8.36128737962926 0.492094529117618
-74.85396383866481 -8.320077285864365 0.4869702746061373
-74.35326842837274 -8.278634082870123 0.4818615605156511
-73.85257301808066 -8.236957670451211 0.4767685908276027
-73.3518776077886 -8.195047948412341 0.4716915695234638
-72.85118219749653 -8.152904816558184 0.46663070058466705
-72.35048678720445 -8.110528174693414 0.4615861879926877
-71.84979137691238 -8.067917922622726 0.45655823572896903
-71.34909596662031 -8.025073960150813 0.4515470477749757
-70.84840055632823 -7.981996187082352 0.44655282811215624
-70.34770514603616 -7.938684503222021 0.44157578072197
-69.8470097357441 -7.895138808374519 0.43661610958586206
-69.34631432545201 -7.851359002344509 0.431674018685297
-68.84561891515995 -7.807344984936712 0.4267497120017305
-68.34492350486788 -7.763096655955778 0.42184339351661304
-67.8442280945758 -7.718613915206404 0.4169552672114003
-67.34353268428373 -7.673896662493277 0.41208553706755335
-66.84283727399166 -7.628944797621095 0.4072344070665137
-66.34214186369958 -7.5837582203945075 0.40240208118975307
-65.84144645340751 -7.538336830618235 0.3975887634187112
-65.34075104311543 -7.49268052809694 0.3927946577348562
-64.84005563282336 -7.446789212635316 0.38801996811963324
-64.3393602225313 -7.4006627840380546 0.3832648985545033
-63.838664812239216 -7.354301142109833 0.37852965302092034
-63.33796940194715 -7.307704186655329 0.3738144355003419
-62.83727399165508 -7.2608718174792415 0.36911944997421475
-62.336578581363 -7.213803934386249 0.3644449004240018
-61.83588317107093 -7.166500437181028 0.3597909908311516
-61.335187760778865 -7.118961225668286 0.35515792517713063
-60.834492350486784 -7.071186199652686 0.3505459074433821
-60.333796940194716 -7.023175258938913 0.34595514161136887
-59.83310152990265 -6.974928303331673 0.3413858316625378
-59.33240611961057 -6.926445232635629 0.33683818157835166
-58.8317107093185 -6.877725946655481 0.3323123953402609
-58.33101529902643 -6.828770345195899 0.3278086769297248
-57.83031988873435 -6.779578328061582 0.3233272303281973
-57.329624478442284 -6.730149795057201 0.3188682595171306
-56.82892906815022 -6.680484645987455 0.31443196847797683
-56.328233657858135 -6.630582780657036 0.3100185611922024
-55.82753824756607 -6.580444098870586 0.30562824164125413
-55.326842837273986 -6.53006850043284 0.30126121380658777
-54.82614742698192 -6.479455885148475 0.29691768166966437
-54.32545201668985 -6.428606152822134 0.29259784921192544
-53.82475660639777 -6.377519203258544 0.2883019204148374
-53.3240611961057 -6.326194936262375 0.2840300992598541
-52.823365785813635 -6.2746332516383205 0.27978258972842784
-52.322670375521554 -6.222834049191057 0.27555959580201783
-51.82197496522949 -6.17079722872527 0.2713613214620745
-51.321279554937405 -6.118522690045637 0.2671879706900553
-50.82058414464535 -6.066010332956871 0.26303974746741243
-50.31988873435327 -6.013260057263629 0.25891685577560697
-49.81919332406119 -5.960271762770596 0.25481949959609107
-49.318497913769136 -5.90704534928247 0.25074788291031513
-48.817802503477054 -5.853580716603936 0.24670220969974022
-48.31710709318497 -5.799877764539666 0.2426826839458167
-47.81641168289292 -5.745936392894357 0.2386895096300039
-47.31571627260084 -5.691756501472689 0.23472289073375752
-46.81502086230876 -5.637337990079352 0.23078303123852795
-46.3143254520167 -5.582680758519018 0.2268701351257727
-45.81363004172462 -5.5277847065963925 0.22298440637695283
-45.31293463143254 -5.472649734116139 0.21912604897351162
-44.81223922114049 -5.417275740882964 0.21529526689691192
-44.311543810848406 -5.361662626701531 0.2114922641286059
-43.810848400556324 -5.305810291376531 0.20771724465004748
-43.31015299026427 -5.249718634712657 0.20397041244269953
-42.80945757997219 -5.193387556514587 0.2002519714880071
-42.30876216968011 -5.136816956587005 0.19656212576743304
-41.808066759388026 -5.080006734734589 0.19290107926242772
-41.30737134909597 -5.022956790762059 0.18926903595444688
-40.80667593880389 -4.965667024474058 0.18566619982494803
-40.30598052851181 -4.908137335675292 0.18209277485538333
-39.80528511821976 -4.8503676241704525 0.17854896502721207
-39.304589707927676 -4.792357789764189 0.17503497432188286
-38.803894297635594 -4.734107732261229 0.17155100672085677
-38.30319888734354 -4.675617351466244 0.1680972662055824
-37.80250347705146 -4.616886547183896 0.1646739567575244
-37.30180806675938 -4.557915219218884 0.16128128235812955
-36.801112656467325 -4.498703267375923 0.15791944698885896
-36.30041724617524 -4.439250591459647 0.15458865463116123
-35.79972183588316 -4.379557091274769 0.15128910926649208
-35.29902642559111 -4.319622666625989 0.14802101487631258
-34.79833101529903 -4.2594472173179625 0.1447845754420749
-34.297635605006946 -4.199030643155375 0.141579994945233
-33.79694019471489 -4.138372843942939 0.13840747736724612
-33.29624478442281 -4.077473719485305 0.13526722668955937
-32.79554937413073 -4.016333169587185 0.13215944689363912
-32.294853963838676 -3.954951094053264 0.129084341960934
-31.794158553546595 -3.8933273926881924 0.1260421158728997
-31.293463143254513 -3.8314619652966897 0.12303297261099377
-30.79276773296246 -3.769354711683441 0.12005711615667014
-30.29207232267038 -3.7070055316531025 0.11711475049138809
-29.791376912378297 -3.6444143250103735 0.11420607959658913
-29.290681502086244 -3.5815809915599672 0.1113313074537432
-28.789986091794162 -3.518505431106533 0.10849063804429893
-28.28929068150208 -3.4551875434547625 0.10568427534970848
-27.788595271210028 -3.3916272284093623 0.10291242335144002
-27.287899860917946 -3.327824385774967 0.10017528603092796
-26.787204450625865 -3.263778915356319 0.09747306736964756
-26.28650904033381 -3.199490716958074 0.0948059713490439
-25.78581363004173 -3.1349596903849246 0.09217420195056913
-25.28511821974965 -3.070185735441541 0.08957796315568611
-24.784422809457595 -3.0051687519326364 0.08701745894584523
-24.283727399165514 -2.9399086396628533 0.08449289330249865
-23.783031988873432 -2.874405298436912 0.08200447020711277
-23.28233657858135 -2.8086586280595114 0.0795523936411291
-22.781641168289298 -2.7426685283352867 0.07713686758601046
-22.280945757997216 -2.6764348990689513 0.0747580960232126
-21.780250347705135 -2.609957640065197 0.0724162829341859
-21.27955493741308 -2.5432366511287015 0.07011163230038964
-20.778859527121 -2.4762718320641284 0.06784434810327422
-20.27816411682892 -2.409063082676198 0.0656146343243007
-19.777468706536865 -2.341610302769574 0.06342269494492125
-19.276773296244784 -2.2739133921489483 0.061268733946589826
-18.776077885952702 -2.2059722506189985 0.05915295531076037
-18.27538247566065 -2.1377867779844166 0.05707556301889216
-17.774687065368568 -2.0693568740498876 0.055036761052442706
-17.273991655076486 -2.000682438620096 0.053036753392855296
-16.773296244784433 -1.931763371499727 0.051075744021596314
-16.27260083449235 -1.862599572493444 0.04915393692011971
-15.77190542420027 -1.7931909414059746 0.04727153606987411
-15.271210013908217 -1.723537378041975 0.045428745452318786
-14.770514603616135 -1.653638782206123 0.04362576904890769
-14.269819193324054 -1.5834950537031318 0.04186281084109833
-13.769123783032 -1.513106092337658 0.040140074810342874
-13.268428372739919 -1.4424717979144077 0.03845776493809705
-12.767732962447838 -1.3715920702380515 0.03681608520581836
-12.267037552155784 -1.3004668091132814 0.035215239594957204
-11.766342141863703 -1.229095914344775 0.033655432086974635
-11.265646731571621 -1.1574792857372316 0.032136866663319275
-10.764951321279568 -1.0856168230953287 0.030659747305453955
-10.264255910987487 -1.0135084262237442 0.02922427799482552
-9.763560500695405 -0.9411539949271699 0.027830662712891474
-9.262865090403352 -0.8685534290102908 0.02647910544110932
-8.76216968011127 -0.7957066282777916 0.02516981016093478
