Polar data for 2 at Re = 105714.28571428572
Alpha (deg) Cl Cd
-180.0 -5.796360806677031 0.9082616211381574
-179.49930458970792 -5.80691127490369 0.9059834581082115
-178.99860917941587 -5.817355926025861 0.9036904814904788
-178.49791376912378 -5.827694362872764 0.9013828062911836
-177.9972183588317 -5.837926188273613 0.8990605475165517
-177.49652294853965 -5.848051005057623 0.8967238201728073
-176.99582753824757 -5.858068416054014 0.8943727392661743
-176.4951321279555 -5.8679780240919985 0.8920074198028792
-175.99443671766343 -5.877779432000796 0.8896279767891447
-175.49374130737135 -5.887472242609622 0.8872345252311967
-174.99304589707927 -5.897056058747694 0.8848271801352606
-174.49235048678722 -5.906530483244224 0.8824060565075588
-173.99165507649514 -5.915895118928434 0.8799712693543184
-173.49095966620305 -5.9251495686295375 0.8775229336817626
-172.990264255911 -5.934293435176752 0.875061164496116
-172.48956884561892 -5.943326321399292 0.8725860768036046
-171.98887343532684 -5.9522478301263755 0.8700977856104527
-171.48817802503476 -5.96105756418722 0.8675964059228841
-170.9874826147427 -5.969755126411038 0.8650820527471247
-170.48678720445062 -5.9783401196270525 0.8625548410893972
-169.98609179415854 -5.986812146664473 0.8600148859559288
-169.4853963838665 -5.99517081035252 0.8574623023529423
-168.9847009735744 -6.003415713520408 0.854897205286664
-168.48400556328232 -6.011546458997355 0.8523197097633176
-167.98331015299027 -6.019562649612575 0.8497299307891285
-167.4826147426982 -6.027463888195288 0.8471279833703208
-166.9819193324061 -6.035249777574707 0.8445139825131186
-166.48122392211405 -6.042919920580052 0.8418880432237487
-165.98052851182197 -6.050473920040535 0.8392502805084333
-165.4798331015299 -6.0579113787853744 0.8366008093733989
-164.97913769123784 -6.065231899643789 0.833939744824869
-164.47844228094576 -6.072435085444992 0.83126720186907
-163.97774687065368 -6.079520539018202 0.8285832955122238
-163.47705146036162 -6.086487863192633 0.8258881407605557
-162.97635605006954 -6.093336660797505 0.8231818526202935
-162.47566063977746 -6.100066534662029 0.8204645460976608
-161.9749652294854 -6.106677087615427 0.81773633619888
-161.47426981919332 -6.113167922486912 0.8149973379301768
-160.97357440890124 -6.119538642105703 0.8122476662977768
-160.4728789986092 -6.125788849301013 0.8094874363079049
-159.9721835883171 -6.131918146902063 0.8067167629667834
-159.47148817802503 -6.137926137738065 0.8039357612806405
-158.97079276773297 -6.143812424638236 0.8011445462556993
-158.4700973574409 -6.149576610431794 0.7983432328981831
-157.9694019471488 -6.155218297947956 0.7955319362143177
-157.46870653685676 -6.160737090015937 0.7927107712103277
-156.96801112656468 -6.1661325894649535 0.7898798528924399
-156.4673157162726 -6.171404399124224 0.7870392962668752
-155.96662030598054 -6.17655212182296 0.7841892163398613
-155.46592489568846 -6.181575360390385 0.7813297281176214
-154.96522948539638 -6.18647371765571 0.7784609466063813
-154.46453407510432 -6.1912467964481515 0.7755829868123644
-153.96383866481224 -6.195894199596928 0.7726959637417959
-153.46314325452016 -6.2004155299312576 0.7697999924009006
-152.9624478442281 -6.204810390280351 0.7668951877959046
-152.46175243393603 -6.209078383473431 0.7639816649330294
-151.96105702364395 -6.21321911233971 0.7610595388185027
-151.4603616133519 -6.217232179708405 0.7581289244585482
-150.9596662030598 -6.221117188408732 0.7551899368593898
-150.45897079276773 -6.224873741269908 0.7522426910272536
-149.95827538247568 -6.228501441121152 0.7492873019683631
-149.4575799721836 -6.231999890791677 0.7463238846889443
-148.9568845618915 -6.2353686931107015 0.743352554195219
-148.45618915159943 -6.2386074509074385 0.7403734254934166
-147.95549374130738 -6.24171576701111 0.7373866135897577
-147.4547983310153 -6.244693244250927 0.7343922334904681
-146.95410292072324 -6.24753948545611 0.7313904002017747
-146.45340751043116 -6.250254093455872 0.7283812287298993
-145.95271210013908 -6.2528366710794305 0.7253648340810669
-145.452016689847 -6.255286821156005 0.7223413312615042
-144.95132127955495 -6.25760414651481 0.7193108352774354
-144.45062586926286 -6.259788249985059 0.7162734611350833
-143.94993045897078 -6.261838734395971 0.7132293238406741
-143.44923504867873 -6.263755202576764 0.7101785384004328
-142.94853963838665 -6.265537257356648 0.7071212198205835
-142.44784422809457 -6.26718450156485 0.7040574831073504
-141.9471488178025 -6.268696538030577 0.7009874432669588
-141.44645340751043 -6.270072969583049 0.6979112153056338
-140.94575799721835 -6.271313399051484 0.6948289142295995
-140.44506258692627 -6.272417429265094 0.6917406550450812
-139.94436717663422 -6.2733846630531005 0.6886465527583013
-139.44367176634213 -6.274214703244715 0.6855467223754897
-138.94297635605005 -6.274907152669158 0.6824412789028661
-138.442280945758 -6.275461614155645 0.6793303373466554
-137.94158553546592 -6.275877690533392 0.6762140127130852
-137.44089012517384 -6.276154984631612 0.6730924200083798
-136.94019471488178 -6.276293099279529 0.6699656742387617
-136.4394993045897 -6.276291637306352 0.6668338904104575
-135.93880389429762 -6.276150201541302 0.6636971835296898
-135.43810848400557 -6.2758683948135925 0.6605556686026871
-134.9374130737135 -6.275445819952443 0.6574094606356701
-134.4367176634214 -6.2748820797870675 0.6542586746348645
-133.93602225312935 -6.274176777146684 0.6511034256064977
-133.43532684283727 -6.273329514860507 0.6479438285567914
-132.9346314325452 -6.272339895757753 0.6447799984919708
-132.43393602225314 -6.271207522667639 0.6416120504182615
-131.93324061196105 -6.269931998419384 0.6384400993418883
-131.43254520166897 -6.268512925842204 0.6352642602690738
-130.93184979137692 -6.266949907765309 0.6320846482060457
-130.43115438108484 -6.265242547017925 0.6289013781590264
-129.93045897079276 -6.263390446429257 0.6257145651342416
-129.4297635605007 -6.261393208828535 0.6225243241379165
-128.92906815020862 -6.2592504370449635 0.6193307701762741
-128.42837273991654 -6.256961733907765 0.6161340182555414
-127.92767732962449 -6.254526702246155 0.6129341833819423
-127.4269819193324 -6.251944944889351 0.6097313805617001
-126.92628650904032 -6.249216064666564 0.6065257248010406
-126.42559109874827 -6.246339664407018 0.6033173311061898
-125.92489568845619 -6.243315346939925 0.600106314483369
-125.42420027816411 -6.240142715094501 0.596892789938806
-124.92350486787205 -6.236821371699967 0.5936768724787239
-124.42280945757997 -6.233350919585533 0.5904586771093469
-123.92211404728789 -6.229730961580419 0.5872383188369042
-123.42141863699584 -6.225961100513841 0.584015912667614
-122.92072322670376 -6.222040939215017 0.5807915736077055
-122.42002781641168 -6.217970080513159 0.5775654166634011
-121.91933240611961 -6.213748127237488 0.5743375568409267
-121.41863699582754 -6.209374682217218 0.5711081091465063
-120.91794158553546 -6.204849348281568 0.5678771885863659
-120.41724617524339 -6.20017172825975 0.5646449101667287
-119.91655076495132 -6.195341424980985 0.5614113888938205
-119.41585535465924 -6.190358041274485 0.5581767397738645
-118.91515994436718 -6.18522117996947 0.5549410778130867
-118.41446453407511 -6.179930443895155 0.5517045180177128
-117.91376912378303 -6.174485435880755 0.5484671753939653
-117.41307371349096 -6.16888575875549 0.5452291649480691
-116.91237830319889 -6.163131015348574 0.5419906016862491
-116.41168289290681 -6.157220808489225 0.5387516006147332
-115.91098748261474 -6.151154741006656 0.5355122767397408
-115.41029207232268 -6.144932415730087 0.5322727450675014
-114.9095966620306 -6.138553435488731 0.5290331206042357
-114.40890125173853 -6.13201740311181 0.525793518356172
-113.90820584144646 -6.125323921428534 0.522554053329532
-113.40751043115438 -6.118472593268124 0.5193148405305404
-112.90681502086231 -6.111463021459794 0.516075994965426
-112.40611961057024 -6.104294808832763 0.5128376316404083
-111.90542420027816 -6.096967558216242 0.5095998655617159
-111.4047287899861 -6.089480872439454 0.5063628117355711
-110.90403337969401 -6.081834354331611 0.5031265851681997
-110.40333796940195 -6.074027606721929 0.4998913008658269
-109.90264255910988 -6.0660602324396296 0.49665707383467483
-109.4019471488178 -6.057931834313925 0.4934240190809721
-108.90125173852573 -6.049642015174032 0.49019225161094104
-108.40055632823366 -6.041190377849167 0.48696188643080573
-107.89986091794158 -6.032576525168549 0.48373303854679295
-107.39916550764951 -6.02380005996139 0.480505822965125
-106.89847009735745 -6.014860585056912 0.4772803546920287
-106.39777468706536 -6.005757703284324 0.47405674873372716
-105.8970792767733 -5.99649101747285 0.47083512009644635
-105.39638386648123 -5.987060130451701 0.4676155837864103
-104.89568845618915 -5.977464645050096 0.4643982548098441
-104.39499304589708 -5.967704164097253 0.4611832481729726
-103.89429763560501 -5.957778290422383 0.45797067888202003
-103.39360222531293 -5.947686626854707 0.4547606619432113
-102.89290681502086 -5.937428776223439 0.45155331236276963
-102.3922114047288 -5.927004341357799 0.4483487451469227
-101.89151599443672 -5.916412925087 0.4451470753018919
-101.39082058414465 -5.905654130240259 0.4419484178339058
-100.89012517385257 -5.894727559646793 0.43875288774918586
-100.3894297635605 -5.883632816135818 0.4355606000539579
-99.88873435326843 -5.872369502536552 0.43237166975444696
-99.38803894297635 -5.860937221678206 0.4291862118568771
-98.88734353268428 -5.849335576390007 0.42600434136747334
-98.38664812239222 -5.83756416950116 0.42282617329245975
-97.88595271210013 -5.825622603840888 0.4196518226380631
-97.38525730180807 -5.813510482238405 0.41648140441050574
-96.884561891516 -5.801227407522929 0.4133150336160153
-96.38386648122392 -5.788772982523676 0.4101528252608114
-95.88317107093185 -5.776146810069861 0.40699489435112357
-95.38247566063978 -5.7633484929907 0.40384135589317405
-94.8817802503477 -5.750377634115411 0.40069232489318696
-94.38108484005564 -5.737233836273214 0.39754791635739084
-93.88038942976357 -5.7239167022933195 0.39440824529200713
-93.37969401947149 -5.710425835004948 0.3912734267032608
-92.87899860917942 -5.696760837237309 0.3881435755973769
-92.37830319888734 -5.682921311819629 0.38501880698058033
-91.87760778859527 -5.6689068615811165 0.381899235859097
-91.3769123783032 -5.654717089350992 0.3787849772391484
-90.87621696801112 -5.640351597958469 0.3756761461269621
-90.37552155771905 -5.625809990232768 0.3725728575287631
-89.87482614742699 -5.6110918690031015 0.3694752264507729
-89.3741307371349 -5.596196837098691 0.3663833678992182
-88.87343532684284 -5.5811244973487435 0.3632973968803249
-88.37273991655077 -5.565874452582486 0.36021742840031534
-87.87204450625869 -5.550446305629128 0.357143577465418
-87.37134909596662 -5.53483965931789 0.35407595908185086
-86.87065368567455 -5.519054116477985 0.35101468825584503
-86.36995827538247 -5.503089279938633 0.3479598799936211
-85.8692628650904 -5.486944752529045 0.3449116493014076
-85.36856745479834 -5.470620137078442 0.34187011118542776
-84.86787204450626 -5.45411503641604 0.3388353806519039
-84.36717663421419 -5.437429053371052 0.3358075727070645
-83.86648122392211 -5.4205617907727 0.332786802357132
-83.36578581363004 -5.403512851450197 0.32977318460833127
-82.86509040333797 -5.38628183823276 0.3267668344668865
-82.36439499304589 -5.368868353949605 0.3237678669390235
-81.86369958275382 -5.351272001429949 0.3207763970309664
-81.36300417246176 -5.333492383503006 0.3177925397489393
-80.86230876216968 -5.315529102998 0.31481641009916717
-80.36161335187761 -5.297381762744139 0.3118481230878777
-79.86091794158554 -5.279049965570639 0.30888779372129227
-79.36022253129346 -5.260533314306725 0.3059355370056359
-78.85952712100139 -5.241831411781607 0.3029914679471327
-78.35883171070932 -5.222943860824501 0.30005570155200945
-77.85813630041724 -5.2038702642646255 0.2971283528264902
-77.35744089012518 -5.184610224931197 0.29420953677679995
-76.85674547983311 -5.16516334565343 0.29129936840916104
-76.35605006954103 -5.1455292292605455 0.288397962729802
-75.85535465924896 -5.125707478581756 0.2855054347449434
-75.35465924895689 -5.105697696446276 0.28262189946081373
-74.85396383866481 -5.085499485683329 0.2797474718836336
-74.35326842837274 -5.065112449122123 0.27688226701963414
-73.85257301808066 -5.044536189591879 0.2740263998750324
-73.3518776077886 -5.023770309921812 0.2711799854560587
-72.85118219749653 -5.002814412941144 0.26834313876893356
-72.35048678720445 -4.981668101479082 0.2655159748198864
-71.84979137691238 -4.96033097836485 0.26269860861513783
-71.34909596662031 -4.938802646427662 0.25989115516091543
-70.84840055632823 -4.917082708496731 0.25709372946344244
-70.34770514603616 -4.895170767401276 0.2543064465289421
-69.8470097357441 -4.873066425970518 0.2515294213636402
-69.34631432545201 -4.850769287033666 0.2487627689737645
-68.84561891515995 -4.828278953419941 0.24600660436553637
-68.34492350486788 -4.8055950279585575 0.2432610425451817
-67.8442280945758 -4.782717113478731 0.24052619851892368
-67.34353268428373 -4.7596448128096815 0.23780218729298822
-66.84283727399166 -4.736377728780626 0.2350891238736003
-66.34214186369958 -4.712915464220773 0.23238712326698577
-65.84144645340751 -4.689257621959346 0.22969630047936698
-65.34075104311543 -4.665403804825562 0.22701677051696803
-64.84005563282336 -4.6413536156486295 0.22434864838601568
-64.3393602225313 -4.617106657257777 0.22169204909273402
-63.838664812239216 -4.592662532482212 0.21904708764334893
-63.33796940194715 -4.5680208441511505 0.21641387904408452
-62.83727399165508 -4.543181195093814 0.21379253830116132
-62.336578581363 -4.518143188139419 0.21118318042080966
-61.83588317107093 -4.492906426117173 0.20858592040925275
-61.335187760778865 -4.467470511856304 0.20600087327271557
-60.834492350486784 -4.441835048186023 0.20342815401742134
-60.333796940194716 -4.415999637935542 0.20086787764959504
-59.83310152990265 -4.3899638839340875 0.19832015917546345
-59.33240611961057 -4.363727389010872 0.1957851136012471
-58.8317107093185 -4.337289755995106 0.19326285593317363
-58.33101529902643 -4.3106505877160135 0.19075350117746717
-57.83031988873435 -4.283809487002808 0.18825716434035447
-57.329624478442284 -4.2567660566847 0.18577396042805785
-56.82892906815022 -4.22951989959092 0.18330400444680053
-56.328233657858135 -4.20207061855067 0.18084741140281194
-55.82753824756607 -4.174417816393174 0.1784042963023135
-55.326842837273986 -4.146561095947648 0.1759747741515302
-54.82614742698192 -4.11850006004331 0.17355895995668616
-54.32545201668985 -4.09023431150937 0.17115696872400635
-53.82475660639777 -4.06176345317505 0.16876891545971753
-53.3240611961057 -4.033087087869564 0.16639491517004293
-52.823365785813635 -4.004204818422128 0.16403508286120574
-52.322670375521554 -3.97511624766196 0.1616895335394354
-51.82197496522949 -3.945820978418279 0.1593583822109507
-51.321279554937405 -3.9163186135202945 0.15704174388197925
-50.82058414464535 -3.8866087557972264 0.15473973355874607
-50.31988873435327 -3.856691008078297 0.15245246624747436
-49.81919332406119 -3.82656497319271 0.15018005695439177
-49.318497913769136 -3.796230253969693 0.14792262068571974
-48.817802503477054 -3.765686453238457 0.14568027244768503
-48.31710709318497 -3.734933173828221 0.14345312724650996
-47.81641168289292 -3.7039700185681994 0.1412413000884231
-47.31571627260084 -3.6727965902876125 0.13904490597964583
-46.81502086230876 -3.64141249181567 0.1368640599264032
-46.3143254520167 -3.6098173259815933 0.13469887693492014
-45.81363004172462 -3.578010695614596 0.1325494720114261
-45.31293463143254 -3.5459922035438964 0.1304159601621381
-44.81223922114049 -3.513761452598713 0.12829845639328377
-44.311543810848406 -3.4813180456082584 0.12619707571109076
-43.810848400556324 -3.448661585401748 0.12411193312177873
-43.31015299026427 -3.4157916748084034 0.1220431436315789
-42.80945757997219 -3.382707916657443 0.11999082224670646
-42.30876216968011 -3.349409913778066 0.11795508397339619
-41.808066759388026 -3.3158972689995103 0.11593604381786507
-41.30737134909597 -3.282169585150987 0.11393381678634432
-40.80667593880389 -3.2482264650616983 0.11194851788505536
-40.30598052851181 -3.2140675115608754 0.10998026212021964
-39.80528511821976 -3.1796923274777384 0.10802916449806924
-39.304589707927676 -3.1451005156414844 0.10609534002482293
-38.803894297635594 -3.110291678881346 0.10417890370670482
-38.30319888734354 -3.075265420026538 0.10227997054994611
-37.80250347705146 -3.0400213419062663 0.10039865556076646
-37.30180806675938 -3.0045590473497565 0.09853507374539086
-36.801112656467325 -2.9688781391862307 0.09668934011004429
-36.30041724617524 -2.9329782202448875 0.09486156966095263
-35.79972183588316 -2.896858893354958 0.0930518774043382
-35.29902642559111 -2.8605197613456603 0.09126037834643044
-34.79833101529903 -2.8239604270461953 0.089487187493449
-34.297635605006946 -2.787180493285792 0.08773241985162153
-33.79694019471489 -2.7501795628936687 0.08599619042717124
-33.29624478442281 -2.712957238699028 0.08427861422632313
-32.79554937413073 -2.6755131235311005 0.08257980625530129
-32.294853963838676 -2.637846820219103 0.08089988152033337
-31.794158553546595 -2.599957931592236 0.0792389550276417
-31.293463143254513 -2.5618460604797253 0.07759714178345037
-30.79276773296246 -2.523510809710798 0.07597455679398527
-30.29207232267038 -2.4849517821146527 0.07437131506547048
-29.791376912378297 -2.446168580520512 0.07278753160413101
-29.290681502086244 -2.4071608077576094 0.07122332141619273
-28.789986091794162 -2.367928066655132 0.06967879950787706
-28.28929068150208 -2.328469960042309 0.06815408088541167
-27.788595271210028 -2.288786090748367 0.0666492805550242
-27.287899860917946 -2.248876061602509 0.06516451352292987
-26.787204450625865 -2.2087394754339513 0.06369989479536256
-26.28650904033381 -2.168375935071925 0.062255539378543695
-25.78581363004173 -2.127785043345625 0.0608315622786956
-25.28511821974965 -2.0869664030842827 0.05942807850204593
-24.784422809457595 -2.0459196171171197 0.058045203054820554
-24.283727399165514 -2.004644288273335 0.05668305094323914
-23.783031988873432 -1.9631400193821484 0.055341737173532884
-23.28233657858135 -1.9214064132727984 0.05402137675192056
-22.781641168289298 -1.8794430727744729 0.05272208468462983
-22.280945757997216 -1.8372496007163992 0.05144397597788744
-21.780250347705135 -1.794825599927801 0.05018716563791306
-21.27955493741308 -1.752170673237888 0.04895176867093523
-20.778859527121 -1.709284423475868 0.04773790008317627
-20.27816411682892 -1.6661664534709733 0.046545674880863835
-19.777468706536865 -1.6228163660524135 0.04537520807021936
-19.276773296244784 -1.5792337640494 0.04422661465747049
-18.776077885952702 -1.535418250291162 0.043100009648836896
-18.27538247566065 -1.4913694276069052 0.041995508050549774
-17.774687065368568 -1.4470868988258445 0.04091322486883056
-17.273991655076486 -1.402570266777202 0.039853275109905134
-16.773296244784433 -1.3578191342901995 0.038815773779995816
-16.27260083449235 -1.3128331041940378 0.03780083588533026
-15.77190542420027 -1.2676117793179493 0.03680857643213167
-15.271210013908217 -1.2221547624911366 0.03583911042662505
-14.770514603616135 -1.1764616565428252 0.03489255287503448
-14.269819193324054 -1.1305320643022316 0.03396901878358585
-13.769123783032 -1.0843655885985708 0.03306862315850148
-13.268428372739919 -1.037961832261054 0.03219148100600813
-12.767732962447838 -0.9913203981189032 0.031337707332330794
-12.267037552155784 -0.9444408890013349 0.030507417143694454
-11.766342141863703 -0.8973229077375589 0.02970072544631966
-11.265646731571621 -0.849966057156804 0.028917747246435838
-10.764951321279568 -0.802369940088278 0.028158597550268866
-10.264255910987487 -0.7545341593611941 0.027423391364036626
-9.763560500695405 -0.7064583178047759 0.0267122436939721
-9.262865090403352 -0.6581420182482383 0.02602526954629139
-8.76216968011127 -0.6095848635207943 0.025362583927226595
-8.261474269819189 -0.560786456451666 0.024724301842999147
