Polar data for a18sm at Re = 248571.42857142858
Alpha (deg) Cl Cd
-180.0 -9.892802852285252 1.4349445662908784
-179.49930458970792 -9.902731812865946 1.431422628910901
-178.99860917941587 -9.91248478831665 1.4278764339645877
-178.49791376912378 -9.922061437181403 1.4243061643478634
-177.9972183588317 -9.931461418004249 1.420712002956654
-177.49652294853965 -9.940684389329231 1.4170941326868847
-176.99582753824757 -9.949730009700387 1.4134527364344813
-176.4951321279555 -9.958597937661764 1.409787997095369
-175.99443671766343 -9.9672878317574 1.4061000975654747
-175.49374130737135 -9.975799350531336 1.4023892207407225
-174.99304589707927 -9.984132152527621 1.3986555495170392
-174.49235048678722 -9.992285896290287 1.3948992667903481
-173.99165507649514 -10.000260240363385 1.391120555456578
-173.49095966620305 -10.008054843290953 1.387319598411651
-172.990264255911 -10.01566936361703 1.3834965785514943
-172.48956884561892 -10.023103459885663 1.3796516787720345
-171.98887343532684 -10.030356790640896 1.3757850819691968
-171.48817802503476 -10.037429014426761 1.3718969710389053
-170.9874826147427 -10.044319789787309 1.3679875288770877
-170.48678720445062 -10.05102877526658 1.3640569383796657
-169.98609179415854 -10.057555629408613 1.3601053824425713
-169.4853963838665 -10.063900010757454 1.3561330439617234
-168.9847009735744 -10.070061577857139 1.3521401058330516
-168.48400556328232 -10.076039989251715 1.34812675095248
-167.98331015299027 -10.081834903485227 1.3440931622159353
-167.4826147426982 -10.087445979101707 1.340039522519341
-166.9819193324061 -10.092872874645204 1.3359660147586232
-166.48122392211405 -10.098115248659763 1.3318728218297093
-165.98052851182197 -10.103172759689418 1.3277601266285255
-165.4798331015299 -10.108045066278214 1.3236281120509932
-164.97913769123784 -10.112731826970196 1.3194769609930401
-164.47844228094576 -10.117232700309401 1.315306856350594
-163.97774687065368 -10.121547344839874 1.3111179810195774
-163.47705146036162 -10.125675419105658 1.306910517895917
-162.97635605006954 -10.129616581650792 1.302684649875539
-162.47566063977746 -10.133370491019319 1.298440559854368
-161.9749652294854 -10.136936805755285 1.2941784307283295
-161.47426981919332 -10.140315184402724 1.2898984453933484
-160.97357440890124 -10.143505285505682 1.2856007867453525
-160.4728789986092 -10.146506767608205 1.2812856376802668
-159.9721835883171 -10.14931928925433 1.2769531810940156
-159.47148817802503 -10.151942508988098 1.2726035998825256
-158.97079276773297 -10.154376085353555 1.2682370769417228
-158.4700973574409 -10.156619676894739 1.2638537951675297
-157.9694019471488 -10.158672942155697 1.259453937455874
-157.46870653685676 -10.160535539680467 1.2550376867026816
-156.96801112656468 -10.16220712801309 1.2506052258038776
-156.4673157162726 -10.163687365697614 1.2461567376553888
-155.96662030598054 -10.164975911278074 1.2416924051531386
-155.46592489568846 -10.166072423298514 1.2372124111930547
-154.96522948539638 -10.166976560302981 1.2327169386710604
-154.46453407510432 -10.167687980835506 1.2282061704830842
-153.96383866481224 -10.168206343440142 1.2236802895250487
-153.46314325452016 -10.168531306660928 1.2191394786928815
-152.9624478442281 -10.168662529041901 1.2145839208825078
-152.46175243393603 -10.168599669127108 1.2100137989898498
-151.96105702364395 -10.168342385460592 1.2054292959108373
-151.4603616133519 -10.167890336586389 1.200830594541395
-150.9596662030598 -10.167243181048546 1.1962178777774484
-150.45897079276773 -10.166400577391105 1.191591328514923
-149.95827538247568 -10.165362184158106 1.1869511296497444
-149.4575799721836 -10.164127659893591 1.1822974640778363
-148.9568845618915 -10.1626966631416 1.1776305146951258
-148.45618915159943 -10.16106885244618 1.1729504643975406
-147.95549374130738 -10.159243886351371 1.1682574960810022
-147.4547983310153 -10.15722142340121 1.16355179264144
-146.95410292072324 -10.155001122139746 1.1588335369747758
-146.45340751043116 -10.152582641111021 1.1541029119769353
-145.95271210013908 -10.149965638859069 1.149360100543848
-145.452016689847 -10.14714977392794 1.1446052855714384
-144.95132127955495 -10.144134704861674 1.1398386499556294
-144.45062586926286 -10.140920090204311 1.1350603765923482
-143.94993045897078 -10.137505588499891 1.1302706483775196
-143.44923504867873 -10.133890858292464 1.1254696482070696
-142.94853963838665 -10.130075558126062 1.120657558976927
-142.44784422809457 -10.126059346544732 1.1158345635830131
-141.9471488178025 -10.121841882092522 1.1110008449212523
-141.44645340751043 -10.117422823313461 1.106156585887574
-140.94575799721835 -10.1128018287516 1.1013019693779023
-140.44506258692627 -10.107978556950982 1.0964371782881632
-139.94436717663422 -10.102952666455643 1.0915623955142828
-139.44367176634213 -10.097723815809626 1.0866778039521852
-138.94297635605005 -10.092291663556978 1.0817835864977972
-138.442280945758 -10.086655868241735 1.0768799260470412
-137.94158553546592 -10.080816088407943 1.0719670054958468
-137.44089012517384 -10.074771982599643 1.067045007740139
-136.94019471488178 -10.068523209360873 1.0621141156758411
-136.4394993045897 -10.062069427235684 1.05717451219888
-135.93880389429762 -10.055410294768109 1.052226380205179
-135.43810848400557 -10.04854547050219 1.0472699025906702
-134.9374130737135 -10.041474612981979 1.0423052622512734
-134.4367176634214 -10.034197380751507 1.0373326420829145
-133.93602225312935 -10.026713432354821 1.0323522249815213
-133.43532684283727 -10.019022426335965 1.027364193843018
-132.9346314325452 -10.011124021238974 1.0223687315633296
-132.43393602225314 -10.003017875607895 1.0173660210383821
-131.93324061196105 -9.994703647986771 1.0123562451641033
-131.43254520166897 -9.986180996919643 1.0073395868364163
-130.93184979137692 -9.977449580950548 1.0023162289512455
-130.43115438108484 -9.968509058623535 0.9972863544045195
-129.93045897079276 -9.959359088482643 0.9922501460921641
-129.4297635605007 -9.949999329071911 0.9872077869101018
-128.92906815020862 -9.940429438935388 0.9821594597542603
-128.42837273991654 -9.930649076617108 0.9771053475205648
-127.92767732962449 -9.920657900661123 0.9720456331049402
-127.4269819193324 -9.910455569611461 0.9669804994033117
-126.92628650904032 -9.900041742012174 0.961910129311606
-126.42559109874827 -9.889416076407304 0.9568347057257492
-125.92489568845619 -9.878578231340889 0.9517544115416655
-125.42420027816411 -9.867527865356973 0.9466694296552834
-124.92350486787205 -9.8562646369996 0.9415799429625228
-124.42280945757997 -9.844788204812804 0.9364861343593139
-123.92211404728789 -9.833098227340635 0.931388186741582
-123.42141863699584 -9.821194363127134 0.9262862830052475
-122.92072322670376 -9.80907627071634 0.9211806060462454
-122.42002781641168 -9.796743608652296 0.916071338760491
-121.91933240611961 -9.784196035479049 0.9109586640439172
-121.41863699582754 -9.77143320974063 0.9058427647924484
-120.91794158553546 -9.758454789981089 0.900723823902006
-120.41724617524339 -9.74526043474447 0.8956020242685195
-119.91655076495132 -9.731849802574807 0.890477548787915
-119.41585535465924 -9.718222552016147 0.8853505803561156
-118.91515994436718 -9.704378341612532 0.8802213018690473
-118.41446453407511 -9.690316829908003 0.8750898962226353
-117.91376912378303 -9.676037675446597 0.8699565463128073
-117.41307371349096 -9.661540536772371 0.8648214350354891
-116.91237830319889 -9.64682507242935 0.8596847452866015
-116.41168289290681 -9.631890940961583 0.8545466599620758
-115.91098748261474 -9.616737800913118 0.8494073619578352
-115.41029207232268 -9.601365310827983 0.844267034169803
-114.9095966620306 -9.585773129250235 0.8391258594939078
-114.40890125173853 -9.569960914723904 0.8339840208260757
-113.90820584144646 -9.553928325793036 0.828841701062229
-113.40751043115438 -9.537675021001677 0.8236990830982919
-112.90681502086231 -9.521200658893862 0.8185563498301983
-112.40611961057024 -9.504504898013638 0.8134136841538689
-111.90542420027816 -9.487587396905049 0.8082712689652262
-111.4047287899861 -9.47044781411213 0.8031292871601995
-110.90403337969401 -9.453085808178926 0.797987921634714
-110.40333796940195 -9.435501037649484 0.7928473552846947
-109.90264255910988 -9.417693161067838 0.787707771006065
-109.4019471488178 -9.39966183697803 0.7825693516947553
-108.90125173852573 -9.381406723924114 0.777432280246687
-108.40055632823366 -9.362927480450118 0.7722967395577897
-107.89986091794158 -9.344223765100088 0.7671629125239822
-107.39916550764951 -9.325295236418071 0.7620309820411985
-106.89847009735745 -9.306141552948102 0.7569011310053574
-106.39777468706536 -9.286762373234225 0.7517735423123867
-105.8970792767733 -9.26715735582049 0.7466483988582141
-105.39638386648123 -9.247326159250926 0.7415258835387611
-104.89568845618915 -9.227268442069583 0.7364061792499582
-104.39499304589708 -9.206983862820504 0.731289468887726
-103.89429763560501 -9.186472080047725 0.7261759353479947
-103.39360222531293 -9.165732752295291 0.7210657615266852
-102.89290681502086 -9.14476553810724 0.7159591303197234
-102.3922114047288 -9.123570096027622 0.7108562246230413
-101.89151599443672 -9.102146084600477 0.7057572273325571
-101.39082058414465 -9.08049316236984 0.7006623213442028
-100.89012517385257 -9.05861098787976 0.6955716895538956
-100.3894297635605 -9.036499219674281 0.6904855148575694
-99.88873435326843 -9.014157516297438 0.6854039801511457
-99.38803894297635 -8.991585536293272 0.6803272683305513
-98.88734353268428 -8.968782938205832 0.6752555622917079
-98.38664812239222 -8.945749380579155 0.6701890449305475
-97.88595271210013 -8.922484521957283 0.6651278991429918
-97.38525730180807 -8.898988020884264 0.6600723078249683
-96.884561891516 -8.875259535904133 0.6550224538723995
-96.38386648122392 -8.851298725560934 0.6499785201812124
-95.88317107093185 -8.827105248398713 0.6449406896473328
-95.38247566063978 -8.802678762961504 0.6399091451666884
-94.8817802503477 -8.778018927793351 0.6348840696352017
-94.38108484005564 -8.753125401438307 0.6298656459488005
-93.88038942976357 -8.727997842440399 0.624854057003407
-93.37969401947149 -8.702635909343673 0.6198494856949474
-92.87899860917942 -8.67703926069218 0.6148521149193528
-92.37830319888734 -8.651207555029952 0.6098621275725403
-91.87760778859527 -8.625140450901032 0.6048797065504431
-91.3769123783032 -8.598837606849468 0.5999050347489835
-90.87621696801112 -8.572298681419294 0.5949382950640875
-90.37552155771905 -8.545523333154563 0.5899796703916774
-89.87482614742699 -8.518511220599304 0.5850293436276847
-89.3741307371349 -8.491262002297564 0.5800874976680316
-88.87343532684284 -8.46377533679339 0.5751543154086441
-88.37273991655077 -8.436050882630816 0.5702299797454465
-87.87204450625869 -8.408088298353896 0.5653146735743683
-87.37134909596662 -8.379887242506655 0.5604085797913282
-86.87065368567455 -8.351447373633146 0.5555118812922576
-86.36995827538247 -8.32276835027741 0.5506247609730824
-85.8692628650904 -8.293849830983483 0.5457474017297216
-85.36856745479834 -8.264691474295415 0.5408799864581099
-84.86787204450626 -8.235292938757247 0.5360226980541661
-84.36717663421419 -8.205653882913015 0.5311757194138164
-83.86648122392211 -8.175773965306764 0.5263392334329936
-83.36578581363004 -8.145652844482544 0.5215134230076149
-82.86509040333797 -8.115290178984381 0.5166984710336046
-82.36439499304589 -8.084685627356325 0.5118945604068955
-81.86369958275382 -8.05383884814243 0.507101874023412
-81.36300417246176 -8.02274949988671 0.5023205947790729
-80.86230876216968 -7.991417241133231 0.4975509055698094
-80.36161335187761 -7.959841730426035 0.49279298929154935
-79.86091794158554 -7.928022626309144 0.4880470288402098
-79.36022253129346 -7.895959587326619 0.4833132071117273
-78.85952712100139 -7.863652272022495 0.47859170700201725
-78.35883171070932 -7.831100338940807 0.47388271140701266
-77.85813630041724 -7.7983034466256065 0.46918640322263416
-77.35744089012518 -7.765261253620945 0.4645029653448113
-76.85674547983311 -7.731973418470837 0.45983258066946286
-76.35605006954103 -7.698439599719347 0.45517543209252376
-75.85535465924896 -7.664659455910513 0.4505317025099128
-75.35465924895689 -7.630632645588367 0.44590157481755954
-74.85396383866481 -7.59635882729696 0.44128523191138636
-74.35326842837274 -7.561837659580338 0.436682856687321
-73.85257301808066 -7.527068800982526 0.43209463204128407
-73.3518776077886 -7.492051910047586 0.4275207408692122
-72.85118219749653 -7.456786645319546 0.4229613660670172
-72.35048678720445 -7.42127266534245 0.41841669053063735
-71.84979137691238 -7.385509628660351 0.41388689715598626
-71.34909596662031 -7.349497193817275 0.40937216883899874
-70.84840055632823 -7.313235019357272 0.404872688475599
-70.34770514603616 -7.276722763824388 0.4003886389617094
-69.8470097357441 -7.239960085762657 0.39592020319325416
-69.34631432545201 -7.202946643716125 0.39146756406616456
-68.84561891515995 -7.165682096228835 0.387030904476363
-68.34492350486788 -7.12816610184483 0.3826104073197737
-67.8442280945758 -7.090398319108143 0.37820625549232434
-67.34353268428373 -7.0523784065628305 0.3738186318899409
-66.84283727399166 -7.0141060227529195 0.3694477194085476
-66.34214186369958 -6.975580826222455 0.36509370094406857
-65.84144645340751 -6.936802475515492 0.36075675939243335
-65.34075104311543 -6.897770629176058 0.35643707764956256
-64.84005563282336 -6.858484945748195 0.3521348386113875
-64.3393602225313 -6.8189450837759615 0.347850225173827
-63.838664812239216 -6.779150701803385 0.3435834202328142
-63.33796940194715 -6.739101458374503 0.3393346066842714
-62.83727399165508 -6.698797012033374 0.3351039674241211
-62.336578581363 -6.658237021324027 0.33089168534828917
-61.83588317107093 -6.617421144790505 0.3266979433527052
-61.335187760778865 -6.576349040976858 0.3225229243332951
-60.834492350486784 -6.535020368427119 0.31836681118597954
-60.333796940194716 -6.493434785685338 0.3142297868066898
-59.83310152990265 -6.451591951295548 0.31011203409134647
-59.33240611961057 -6.409491523801805 0.30601373593587555
-58.8317107093185 -6.367133161748125 0.30193507523620833
-58.33101529902643 -6.324516523678575 0.2978762348882601
-57.83031988873435 -6.281641268137193 0.29383739778796925
-57.329624478442284 -6.2385070536680125 0.2898187468312511
-56.82892906815022 -6.195113538815079 0.28582046491403157
-56.328233657858135 -6.151460382122437 0.28184273493224554
-55.82753824756607 -6.107547242134125 0.27788573978181186
-55.326842837273986 -6.063373777394187 0.2739496623586529
-54.82614742698192 -6.018939646446668 0.27003468555869825
-54.32545201668985 -5.974244507835596 0.2661409922778738
-53.82475660639777 -5.929288020105034 0.2622687654121073
-53.3240611961057 -5.884069841799011 0.2584181878573212
-52.823365785813635 -5.838589631461566 0.25458944250943605
-52.322670375521554 -5.792847047636748 0.25078271226438853
-51.82197496522949 -5.746841748868604 0.24699818001809393
-51.321279554937405 -5.700573393701159 0.24323602866648353
-50.82058414464535 -5.6540416406784715 0.2394964411054833
-50.31988873435327 -5.607246148344579 0.23577960023101563
-49.81919332406119 -5.560186575243517 0.23208568893901182
-49.318497913769136 -5.512862579919329 0.2284148901253925
-48.817802503477054 -5.465273820916067 0.2247673866860801
-48.31710709318497 -5.41741995677776 0.2211433615170041
-47.81641168289292 -5.369300646048455 0.217542997514094
-47.31571627260084 -5.320915547272204 0.2139664775732687
-46.81502086230876 -5.272264318993031 0.21041398459045768
-46.3143254520167 -5.223346619754992 0.20688570146158514
-45.81363004172462 -5.174162108102127 0.20338181108257525
-45.31293463143254 -5.124710442578458 0.1999024963493593
-44.81223922114049 -5.07499128172806 0.1964479401578526
-44.311543810848406 -5.025004284094958 0.19301832540399
-43.810848400556324 -4.9747491082231825 0.18961383498369033
-43.31015299026427 -4.924225412656796 0.18623465179288845
-42.80945757997219 -4.873432855939836 0.1828809587275032
-42.30876216968011 -4.822371096616326 0.17955293868346056
-41.808066759388026 -4.771039793230333 0.1762507745566847
-41.30737134909597 -4.7194386043258945 0.1729746492430998
-40.80667593880389 -4.667567188447027 0.16972474563864248
-40.30598052851181 -4.615425204137804 0.16650124663922627
-39.80528511821976 -4.563012309942263 0.16330433514078246
-39.304589707927676 -4.510328164404424 0.160134194039237
-38.803894297635594 -4.45737242606835 0.15699100623051232
-38.30319888734354 -4.404144753478082 0.15387495461053258
-37.80250347705146 -4.350644805177641 0.15078622207522907
-37.30180806675938 -4.296872239711089 0.1477249915205242
-36.801112656467325 -4.242826715622478 0.14469144584234572
-36.30041724617524 -4.188507891455814 0.14168576793661425
-35.79972183588316 -4.133915425755166 0.13870814069925574
-35.29902642559111 -4.079048977064584 0.13575874702620327
-34.79833101529903 -4.023908203928077 0.13283776981337392
-34.297635605006946 -3.9684927648897137 0.12994539195669896
-33.79694019471489 -3.9128023184935365 0.12708179635210082
-33.29624478442281 -3.8568365232835617 0.12424716589550722
-32.79554937413073 -3.800595037803859 0.12144168348284234
-32.294853963838676 -3.74407752059847 0.11866553201003394
-31.794158553546595 -3.6872836302114003 0.11591889437300262
-31.293463143254513 -3.6302130251867375 0.11320195346767614
-30.79276773296246 -3.572865364068509 0.11051489218998223
-30.29207232267038 -3.5152403054007344 0.10785789343584329
-29.791376912378297 -3.457337507727477 0.10523114010118706
-29.290681502086244 -3.3991566295927917 0.10263481508194305
-28.789986091794162 -3.340697329540685 0.10006910127402657
-28.28929068150208 -3.281959266115223 0.09753418157337423
-27.788595271210028 -3.2229420978604537 0.09503023887590667
-27.287899860917946 -3.1636454833203906 0.09255745607754629
-26.787204450625865 -3.1040690810390963 0.0901160160742226
-26.28650904033381 -3.0442125495606263 0.08770610176186155
-25.78581363004173 -2.984075547428983 0.0853278960363838
-25.28511821974965 -2.9236577331882394 0.08298158179372062
-24.784422809457595 -2.862958765382441 0.08066734192979796
-24.283727399165514 -2.801978302555593 0.0783853593405347
-23.783031988873432 -2.7407160032517766 0.07613581692186389
-23.28233657858135 -2.6791715260150255 0.07391889756970615
-22.781641168289298 -2.61734452938936 0.07173478417998747
-22.280945757997216 -2.55523467191885 0.06958365964863555
-21.780250347705135 -2.4928416121475223 0.0674657068715746
-21.27955493741308 -2.430165008619415 0.06538110874473058
-20.778859527121 -2.3672045198785803 0.0633300481640312
-20.27816411682892 -2.303959804469063 0.0613127080253989
-19.777468706536865 -2.240430520934897 0.05932927122475784
-19.276773296244784 -2.1766163278201134 0.057379920658041095
-18.776077885952702 -2.1125168836687784 0.055464839221163964
-18.27538247566065 -2.048131847024923 0.05358420981006129
-17.774687065368568 -1.9834608764325772 0.051738215320651926
-17.273991655076486 -1.9185036304357972 0.04992703864886361
-16.773296244784433 -1.8532597675786313 0.048150862690624074
-16.27260083449235 -1.7877289464050925 0.04640987034185928
-15.77190542420027 -1.7219108254592648 0.044704244498489865
-15.271210013908217 -1.6558050632851575 0.043034168056443556
-14.770514603616135 -1.5894113184268157 0.04139982391164809
-14.269819193324054 -1.5227292494282985 0.03980139496002588
-13.769123783032 -1.45575851483364 0.03823906409750644
-13.268428372739919 -1.388498773186864 0.03671301422001216
-12.767732962447838 -1.320949683032044 0.035223428223467246
-12.267037552155784 -1.2531109029132033 0.03377048900380297
-11.766342141863703 -1.1849820913743763 0.0323543794569382
-11.265646731571621 -1.1165629069596257 0.03097528247880421
-10.764951321279568 -1.0478530082129858 0.02963338096532342
-10.264255910987487 -0.9788520536784837 0.028328857812420005
-9.763560500695405 -0.9095597019001822 0.027061895916023482
-9.262865090403352 -0.8399756114221155 0.02583267817205448
-8.76216968011127 -0.7700994407883179 0.02464138747644784
-8.261474269819189 -0.6999308485428379 0.023488206725118865
