Polar data for 2 at Re = 128571.42857142858
Alpha (deg) Cl Cd
-180.0 -8.969478851905055 1.1065133678779893
-179.49930458970792 -8.978147679332213 1.1036773862751035
-178.99860917941587 -8.986657460896147 1.1008231256128835
-178.49791376912378 -8.995007913359572 1.0979507301502507
-177.9972183588317 -9.0031987534852 1.095060344146131
-177.49652294853965 -9.011229698035741 1.0921521118594473
-176.99582753824757 -9.0191004637739 1.0892261775491245
-176.4951321279555 -9.02681076746239 1.0862826854740872
-175.99443671766343 -9.034360325863922 1.0833217798932588
-175.49374130737135 -9.0417488557412 1.0803436050655624
-174.99304589707927 -9.048976073856945 1.0773483052499262
-174.49235048678722 -9.056041696973857 1.0743360247052693
-173.99165507649514 -9.062945441854648 1.0713069076905197
-173.49095966620305 -9.069687025262034 1.0682610984646004
-172.990264255911 -9.076266163958717 1.0651987412864343
-172.48956884561892 -9.082682574707412 1.062119980414949
-171.98887343532684 -9.088935974270829 1.0590249601090649
-171.48817802503476 -9.09502607941167 1.0559138246277093
-170.9874826147427 -9.100952606892655 1.052786718229805
-170.48678720445062 -9.106715273476489 1.0496437851742735
-169.98609179415854 -9.112313795925882 1.046485169720045
-169.4853963838665 -9.117747891003546 1.0433110161260382
-168.9847009735744 -9.123017275472193 1.04012146865118
-168.48400556328232 -9.128121666094525 1.0369166715543947
-167.98331015299027 -9.133060779633258 1.0336967690946064
-167.4826147426982 -9.137834332851103 1.0304619055307385
-166.9819193324061 -9.142442042510762 1.0272122251217153
-166.48122392211405 -9.146883625374954 1.0239478721264612
-165.98052851182197 -9.151158798206385 1.0206689908039015
-165.4798331015299 -9.155267277767763 1.0173757254129583
-164.97913769123784 -9.159208780821803 1.0140682202125573
-164.47844228094576 -9.162983024131215 1.010746619461622
-163.97774687065368 -9.1665897244587 1.0074110674190775
-163.47705146036162 -9.170028598566976 1.0040617083438466
-162.97635605006954 -9.173299363218753 1.0006986864948544
-162.47566063977746 -9.176401735176732 0.9973221461310267
-161.9749652294854 -9.179335431203636 0.9939322315112855
-161.47426981919332 -9.18210016806217 0.990529086894554
-160.97357440890124 -9.184695662515036 0.9871128565397587
-160.4728789986092 -9.187121631324956 0.9836836847058243
-159.9721835883171 -9.189377791254635 0.9802417156516732
-159.47148817802503 -9.191463859066776 0.97678709363623
-158.97079276773297 -9.193379551524103 0.9733199629184204
-158.4700973574409 -9.195124585389316 0.9698404677571666
-157.9694019471488 -9.196698677425122 0.9663487524113925
-157.46870653685676 -9.198101544394241 0.9628449611400247
-156.96801112656468 -9.199332903059378 0.9593292382019845
-156.4673157162726 -9.200392470183239 0.9558017278562001
-155.96662030598054 -9.201279962528542 0.952262574361592
-155.46592489568846 -9.201995096857996 0.9487119219770859
-154.96522948539638 -9.202537589934298 0.9451499149616056
-154.46453407510432 -9.202907158520173 0.9415766975740751
-153.96383866481224 -9.203103519378327 0.9379924140734202
-153.46314325452016 -9.203126389271464 0.9343972087185646
-152.9624478442281 -9.202975484962302 0.9307912257684305
-152.46175243393603 -9.20265052321355 0.9271746094819437
-151.96105702364395 -9.202151220787911 0.9235475041180281
-151.4603616133519 -9.2014772944481 0.9199100539356084
-150.9596662030598 -9.200628460956828 0.9162624031936086
-150.45897079276773 -9.199604437076797 0.9126046961509526
-149.95827538247568 -9.198404939570729 0.9089370770665652
-149.4575799721836 -9.19702968520133 0.9052596901993686
-148.9568845618915 -9.1954783907313 0.9015726798082893
-148.45618915159943 -9.193750772923362 0.897876190152253
-147.95549374130738 -9.191846548540223 0.8941703654901783
-147.4547983310153 -9.189765434344583 0.8904553500809944
-146.95410292072324 -9.187507147099165 0.8867312881836245
-146.45340751043116 -9.18507140356667 0.8829983240569914
-145.95271210013908 -9.182457920509815 0.8792566019600192
-145.452016689847 -9.179666414691308 0.8755062661516353
-144.95132127955495 -9.17669660287385 0.87174746089076
-144.45062586926286 -9.173548201820164 0.8679803304363201
-143.94993045897078 -9.170220928292956 0.8642050190472375
-143.44923504867873 -9.166714499054926 0.8604216709824388
-142.94853963838665 -9.163028630868798 0.856630430500849
-142.44784422809457 -9.159163040497276 0.8528314418613883
-141.9471488178025 -9.155117444703066 0.8490248493229824
-141.44645340751043 -9.150891560248887 0.8452107971445579
-140.94575799721835 -9.14648510389744 0.8413894295850362
-140.44506258692627 -9.141897792411438 0.8375608909033436
-139.94436717663422 -9.137129342553596 0.8337253253584034
-139.44367176634213 -9.13217947108662 0.8298828772091402
-138.94297635605005 -9.12704789477321 0.8260336907144772
-138.442280945758 -9.121734330376093 0.8221779101333382
-137.94158553546592 -9.11623849465797 0.8183156797246498
-137.44089012517384 -9.110560104381552 0.8144471437473351
-136.94019471488178 -9.104698876309548 0.8105724464603161
-136.4394993045897 -9.098654527204673 0.8066917321225213
-135.93880389429762 -9.092426773829626 0.8028051449928719
-135.43810848400557 -9.086015332947131 0.7989128293302918
-134.9374130737135 -9.079419921319886 0.7950149293937068
-134.4367176634214 -9.072640255710606 0.7911115894420397
-133.93602225312935 -9.065676052882004 0.7872029537342173
-133.43532684283727 -9.058527029596785 0.7832891665291617
-132.9346314325452 -9.051192902617661 0.7793703720857958
-132.43393602225314 -9.04367338870734 0.7754467146630455
-131.93324061196105 -9.035968204628531 0.7715183385198354
-131.43254520166897 -9.02807706714395 0.7675853879150896
-130.93184979137692 -9.019999693016306 0.7636480071077336
-130.43115438108484 -9.0117357990083 0.759706340356687
-129.93045897079276 -9.003285101882653 0.75576053192088
-129.4297635605007 -8.99464731840207 0.7518107260592328
-128.92906815020862 -8.985822165329257 0.7478570670306686
-128.42837273991654 -8.97680935942693 0.7438996990941165
-127.92767732962449 -8.967608617457799 0.7399387665084951
-127.4269819193324 -8.958219656184568 0.7359744135327329
-126.92628650904032 -8.948642192369952 0.7320067844257518
-126.42559109874827 -8.938875942776662 0.7280360234464787
-125.92489568845619 -8.9289206241674 0.7240622748538346
-125.42420027816411 -8.918775953304888 0.7200856829067444
-124.92350486787205 -8.908441646951825 0.7161063918641328
-124.42280945757997 -8.897917421870925 0.7121245459849257
-123.92211404728789 -8.8872029948249 0.7081402895280451
-123.42141863699584 -8.876298082576461 0.7041537667524149
-122.92072322670376 -8.865202401888308 0.7001651219169609
-122.42002781641168 -8.853915669523165 0.6961744992806069
-121.91933240611961 -8.842437602243734 0.6921820431022769
-121.41863699582754 -8.830767916812722 0.6881878976408939
-120.91794158553546 -8.818906329992846 0.6841922071553845
-120.41724617524339 -8.806852558546812 0.68019511590467
-119.91655076495132 -8.794606319237328 0.6761967681476777
-119.41585535465924 -8.78216732882711 0.6721973081433326
-118.91515994436718 -8.769535304078865 0.6681968801505531
-118.41446453407511 -8.756709961755295 0.6641956284282695
-117.91376912378303 -8.743691018619124 0.6601936972354021
-117.41307371349096 -8.730478191433058 0.6561912308308775
-116.91237830319889 -8.717071196959797 0.6521883734736169
-116.41168289290681 -8.703469751962064 0.6481852694225496
-115.91098748261474 -8.689673573202562 0.6441820629365951
-115.41029207232268 -8.675682377443998 0.6401788982746808
-114.9095966620306 -8.661495881449092 0.6361759196957271
-114.40890125173853 -8.647113801980545 0.6321732714586623
-113.90820584144646 -8.632535855801066 0.6281710978224069
-113.40751043115438 -8.617761759673375 0.62416954304589
-112.90681502086231 -8.602791230360175 0.6201687513880312
-112.40611961057024 -8.58762398462417 0.6161688671077552
-111.90542420027816 -8.572259739228084 0.6121700344639904
-111.4047287899861 -8.55669821093462 0.6081723977156546
-110.90403337969401 -8.540939116506479 0.6041761011216786
-110.40333796940195 -8.524982172706387 0.6001812889409812
-109.90264255910988 -8.50882709629704 0.5961881054324898
-109.4019471488178 -8.492473604041159 0.5921966948551265
-108.90125173852573 -8.47592141270145 0.5882072014678179
-108.40055632823366 -8.459170239040617 0.584219769529488
-107.89986091794158 -8.442219799821377 0.580234543299057
-107.39916550764951 -8.425069811806441 0.5762516670354552
-106.89847009735745 -8.407719991758512 0.5722712849976002
-106.39777468706536 -8.390170056440304 0.5682935414444221
-105.8970792767733 -8.37241972261453 0.5643185806348432
-105.39638386648123 -8.354468707043893 0.5603465468277855
-104.89568845618915 -8.336316726491109 0.5563775842821748
-104.39499304589708 -8.317963497718885 0.5524118372569375
-103.89429763560501 -8.299408737489927 0.5484494500109942
-103.39360222531293 -8.280652162566955 0.5444905668032731
-102.89290681502086 -8.26169348971267 0.540535331892692
-102.3922114047288 -8.242532435689785 0.5365838895381818
-101.89151599443672 -8.223168717261014 0.532636383998663
-101.39082058414465 -8.203602051189058 0.528692959533063
-100.89012517385257 -8.183832154236633 0.5247537604003012
-100.3894297635605 -8.16385874316645 0.5208189308593034
-99.88873435326843 -8.14368153474122 0.5168886151689989
-99.38803894297635 -8.123300245723641 0.5129629575883043
-98.88734353268428 -8.102714592876438 0.5090421023761473
-98.38664812239222 -8.08192429296231 0.5051261937914553
-97.88595271210013 -8.060929062743977 0.5012153760931468
-97.38525730180807 -8.039728618984142 0.49730979354015115
-96.884561891516 -8.018322678445514 0.49340959039138865
-96.38386648122392 -7.996710957890804 0.48951491090578503
-95.88317107093185 -7.974893174082729 0.4856258993422633
-95.38247566063978 -7.952869043783987 0.48174269995975094
-94.8817802503477 -7.930638283757298 0.47786545701716565
-94.38108484005564 -7.908200610765369 0.47399431477344023
-93.88038942976357 -7.885555741570903 0.47012941748749326
-93.37969401947149 -7.862703392936621 0.46627090941824867
-92.87899860917942 -7.839643281625228 0.4624189348246339
-92.37830319888734 -7.8163751243994275 0.45857363796557205
-91.87760778859527 -7.792898638021943 0.45473516309998696
-91.3769123783032 -7.769213539255474 0.4509036544868017
-90.87621696801112 -7.74531954486273 0.44707925638494195
-90.37552155771905 -7.721216371606432 0.44326211305332985
-89.87482614742699 -7.696903736249278 0.4394523687508929
-89.3741307371349 -7.6723813555539815 0.4356501677365541
-88.87343532684284 -7.647648946283254 0.43185565426923467
-88.37273991655077 -7.6227062251998055 0.42806897260786303
-87.87204450625869 -7.597552909066345 0.4242902670113631
-87.37134909596662 -7.572188714645583 0.42051968173865517
-86.87065368567455 -7.546613358700227 0.41675736104866856
-86.36995827538247 -7.520826557992989 0.41300344920032184
-85.8692628650904 -7.494828029286579 0.40925809045254335
-85.36856745479834 -7.46861748934371 0.4055214290642579
-84.86787204450626 -7.442194654927085 0.4017936092943859
-84.36717663421419 -7.415559242799421 0.39807477540185476
-83.86648122392211 -7.388710969723419 0.3943650716455884
-83.36578581363004 -7.361649552461798 0.3906646422845099
-82.86509040333797 -7.334374707777264 0.3869736315775423
-82.36439499304589 -7.306886152432528 0.38329218378361385
-81.86369958275382 -7.2791836031903 0.379620443161645
-81.36300417246176 -7.251266776813284 0.37595855397056055
-80.86230876216968 -7.223135390064196 0.3723066604692844
-80.36161335187761 -7.194789159705752 0.3686649069167458
-79.86091794158554 -7.166227802500649 0.3650334375718607
-79.36022253129346 -7.1374510352116 0.36141239669356007
-78.85952712100139 -7.1084585746013245 0.3578019285407643
-78.35883171070932 -7.079250137432523 0.35420217737239823
-77.85813630041724 -7.049825440467905 0.3506132874473875
-77.35744089012518 -7.020184200470189 0.3470354030246561
-76.85674547983311 -6.990326134202074 0.34346866836312606
-76.35605006954103 -6.960250958426282 0.33991322772172494
-75.85535465924896 -6.929958389905514 0.33636922535937397
-75.35465924895689 -6.89944814540248 0.33283680553499884
-74.85396383866481 -6.868719941679891 0.3293161125075226
-74.35326842837274 -6.837773495500463 0.3258072905358744
-73.85257301808066 -6.8066085236268945 0.32231048387896943
-73.3518776077886 -6.775224742821908 0.3188258367957404
-72.85118219749653 -6.743621869848208 0.3153534935451068
-72.35048678720445 -6.7117996214685 0.3118935983859934
-71.84979137691238 -6.6797577144455 0.30844629557732506
-71.34909596662031 -6.647495865541916 0.30501172937802745
-70.84840055632823 -6.615013791520449 0.30159004404702183
-70.34770514603616 -6.582311209143827 0.29818138384323656
-69.8470097357441 -6.549387835174751 0.29478589302558844
-69.34631432545201 -6.516243386375925 0.2914037158530085
-68.84561891515995 -6.4828775795100695 0.28803499658442067
-68.34492350486788 -6.449290131339885 0.28467987947874795
-67.8442280945758 -6.415480758628088 0.2813385087949116
-67.34353268428373 -6.3814491781373865 0.27801102879183914
-66.84283727399166 -6.3471951066304895 0.27469758372845265
-66.34214186369958 -6.312718260870105 0.27139831786367874
-65.84144645340751 -6.278018357618946 0.26811337545644043
-65.34075104311543 -6.243095113639725 0.26484290076566164
-64.84005563282336 -6.207948245695145 0.2615870380502672
-64.3393602225313 -6.172577470547924 0.2583459315691792
-63.838664812239216 -6.136982504960765 0.2551197255813251
-63.33796940194715 -6.101163065696379 0.2519085643456298
-62.83727399165508 -6.065118869517483 0.24871259212101185
-62.336578581363 -6.028849633186776 0.24553195316639956
-61.83588317107093 -5.99235507346697 0.24236679174071776
-61.335187760778865 -5.955634907120785 0.23921725210289038
-60.834492350486784 -5.918688850910924 0.23608347851183867
-60.333796940194716 -5.881516621600091 0.2329656152264901
-59.83310152990265 -5.844117935951011 0.2298638065057668
-59.33240611961057 -5.806492510726385 0.22677819660859447
-58.8317107093185 -5.768640062688912 0.22370892979389526
-58.33101529902643 -5.730560308601318 0.22065615032059574
-57.83031988873435 -5.692252965226312 0.21762000244762073
-57.329624478442284 -5.653717749326591 0.21460063043389058
-56.82892906815022 -5.614954377664879 0.21159817853833188
-56.328233657858135 -5.5759625670038835 0.20861279101987032
-55.82753824756607 -5.5367420341063065 0.20564461213742805
-55.326842837273986 -5.497292495734867 0.20269378614993075
-54.82614742698192 -5.457613668652267 0.19976045731629968
-54.32545201668985 -5.4177052696212185 0.19684476989546054
-53.82475660639777 -5.377567015404437 0.1939468681463408
-53.3240611961057 -5.337198622764631 0.19106689632785992
-52.823365785813635 -5.296599808464502 0.1882049986989445
-52.322670375521554 -5.255770289266773 0.185361319518522
-51.82197496522949 -5.214709781934142 0.18253600304550835
-51.321279554937405 -5.1734180032293215 0.17972919353883368
-50.82058414464535 -5.1318946699150265 0.1769410352574219
-50.31988873435327 -5.090139498753969 0.1741716724601934
-49.81919332406119 -5.048152206508848 0.1714212494060783
-49.318497913769136 -5.005932509942382 0.16868991035399608
-48.817802503477054 -4.96348012581728 0.1659777995628751
-48.31710709318497 -4.920794770896243 0.16328506129163392
-47.81641168289292 -4.87787616194199 0.16061183979920093
-47.31571627260084 -4.834724015717241 0.15795827934450182
-46.81502086230876 -4.79133804898468 0.15532452418645518
-46.3143254520167 -4.747717978507036 0.15271071858398846
-45.81363004172462 -4.7038635210470146 0.15011700679602738
-45.31293463143254 -4.659774393367321 0.14754353308149584
-44.81223922114049 -4.615450312230677 0.14499044169931244
-44.311543810848406 -4.570890994399785 0.14245787690841086
-43.810848400556324 -4.5260961566373465 0.13994598296770613
-43.31015299026427 -4.481065515706084 0.13745490413612751
-42.80945757997219 -4.4357987883687064 0.13498478467259625
-42.30876216968011 -4.390295691387911 0.13253576883604337
-41.808066759388026 -4.344555941526418 0.13010800088538302
-41.30737134909597 -4.2985792555469535 0.12770162507954622
-40.80667593880389 -4.25236535021219 0.12531678567745777
-40.30598052851181 -4.2059139422848615 0.12295362693803893
-39.80528511821976 -4.159224748527687 0.12061229312021451
-39.304589707927676 -4.11229748570335 0.11829292848290754
-38.803894297635594 -4.065131870574578 0.11599567728504459
-38.30319888734354 -4.017727619904085 0.1137206837855487
-37.80250347705146 -3.97008445045456 0.11146809224334467
-37.30180806675938 -3.922202078988728 0.10923804691735553
-36.801112656467325 -3.8740802222693054 0.10703069206650609
-36.30041724617524 -3.8257185970589864 0.10484617194972293
-35.79972183588316 -3.777116920120487 0.10268463082592197
-35.29902642559111 -3.728274908216526 0.10054621295404045
-34.79833101529903 -3.679192278109798 0.09843106259299253
-34.297635605006946 -3.6298687465630186 0.09633932400170478
-33.79694019471489 -3.580304030338911 0.09427114143910556
-33.29624478442281 -3.530497846200162 0.0922266591641108
-32.79554937413073 -3.4804499109094946 0.0902060214356524
-32.294853963838676 -3.430159941229628 0.08820937251265162
-31.794158553546595 -3.3796276539232464 0.08623685665403327
-31.293463143254513 -3.328852765753079 0.0842886181187186
-30.79276773296246 -3.2778349934818385 0.08236480116563774
-30.29207232267038 -3.226574053872226 0.0804655500537084
-29.791376912378297 -3.1750696636869433 0.07859100904185892
-29.290681502086244 -3.1233215396887273 0.07674132238901235
-28.789986091794162 -3.0713293986402546 0.07491663435409349
-28.28929068150208 -3.0190929573042515 0.07311708919602536
-27.788595271210028 -2.966611932443441 0.07134283117373455
-27.287899860917946 -2.913886040820514 0.06959400454614231
-26.787204450625865 -2.8609149991981786 0.06787075357217345
-26.28650904033381 -2.8076985243391652 0.06617322251075278
-25.78581363004173 -2.7542363330061645 0.06450155562080687
-25.28511821974965 -2.7005281419618887 0.06285589716125697
-24.784422809457595 -2.646573667969064 0.06123639139102613
-24.283727399165514 -2.5923726277903745 0.059643182569040915
-23.783031988873432 -2.537924738188546 0.058076414954226135
-23.28233657858135 -2.483229715926295 0.056536232805503045
-22.781641168289298 -2.428287277766315 0.055022780381798225
-22.280945757997216 -2.373097140471322 0.05353620194203826
-21.780250347705135 -2.3176590208040357 0.05207664174513907
-21.27955493741308 -2.261972635527157 0.050644244050037895
-20.778859527121 -2.206037701403388 0.04923915311564711
-20.27816411682892 -2.1498539351954546 0.04786151320089152
-19.777468706536865 -2.0934210536660585 0.04651146856470126
-19.276773296244784 -2.036738773577908 0.04518916346599758
-18.776077885952702 -1.9798068116937193 0.04389474216370884
-18.27538247566065 -1.9226248847762006 0.042628348916754516
-17.774687065368568 -1.86519270958805 0.04139012798405764
-17.273991655076486 -1.8075100028919904 0.04018022362455012
-16.773296244784433 -1.7495764814507373 0.03899878009714611
-16.27260083449235 -1.6913918620269817 0.03784594166077218
-15.77190542420027 -1.6329558613834498 0.03672185257436025
-15.271210013908217 -1.5742681962828469 0.03562665709683158
-14.770514603616135 -1.5153285834878742 0.03456049948709852
-14.269819193324054 -1.4561367397612548 0.03352352400410366
-13.769123783032 -1.3966923818656936 0.032515874906757586
-13.268428372739919 -1.3369952265638991 0.03153769645399043
-12.767732962447838 -1.2770449906185766 0.030589132904727007
-12.267037552155784 -1.2168413907924487 0.029670328517886785
-11.766342141863703 -1.1563841438482063 0.028781427552398126
-11.265646731571621 -1.095672966548583 0.027922574267180506
-10.764951321279568 -1.034707575656273 0.027093912921167612
-10.264255910987487 -0.9734876879339884 0.026295587773277146
-9.763560500695405 -0.9120130201444416 0.025527743082432136
-9.262865090403352 -0.8502832890503447 0.02479052310755739
-8.76216968011127 -0.7882982114143919 0.02408407210758126
-8.261474269819189 -0.7260575039993205 0.023408534341421455
-7.760778859527136 -0.6635608835678246 0.022764054068008105
