Polar data for a18sm at Re = 265714.28571428574
Alpha (deg) Cl Cd
-180.0 -10.206251202304992 1.4735137150229636
-179.49930458970792 -10.21644267016549 1.469917288184201
-178.99860917941587 -10.226452888625753 1.466295926794691
-178.49791376912378 -10.236281505139834 1.4626498178043295
-177.9972183588317 -10.245928167161786 1.4589791481630159
-177.49652294853965 -10.255392522145657 1.4552841048206484
-176.99582753824757 -10.2646742175455 1.451564874727127
-176.4951321279555 -10.273772900815363 1.4478216448323526
-175.99443671766343 -10.282688219409296 1.4440546020862208
-175.49374130737135 -10.291419820781355 1.4402639334386316
-174.99304589707927 -10.299967352385586 1.4364498258394875
-174.49235048678722 -10.308330461676045 1.4326124662386825
-173.99165507649514 -10.316508796106772 1.4287520415861183
-173.49095966620305 -10.324502003131828 1.4248687388316932
-172.990264255911 -10.332309730205255 1.4209627449253062
-172.48956884561892 -10.339931624781112 1.4170342468168573
-171.98887343532684 -10.347367334313445 1.4130834314562448
-171.48817802503476 -10.354616506256304 1.409110485793367
-170.9874826147427 -10.361678788063744 1.4051155967781255
-170.48678720445062 -10.368553827189809 1.4010989513604142
-169.98609179415854 -10.375241271088555 1.3970607364901366
-169.4853963838665 -10.38174076721403 1.393001139117191
-168.9847009735744 -10.38805196302029 1.3889203461914765
-168.48400556328232 -10.394174505961379 1.3848185446628913
-167.98331015299027 -10.400108043491347 1.3806959214813346
-167.4826147426982 -10.40585222306425 1.3765526635967054
-166.9819193324061 -10.411406692134133 1.372388957958902
-166.48122392211405 -10.416771098155051 1.3682049915178252
-165.98052851182197 -10.421945088581053 1.3640009512233733
-165.4798331015299 -10.42692831086619 1.3597770240254454
-164.97913769123784 -10.43172041246451 1.355533396873938
-164.47844228094576 -10.43632104083007 1.3512702567187538
-163.97774687065368 -10.440729843416912 1.346987790509791
-163.47705146036162 -10.444946467679097 1.3426861851969467
-162.97635605006954 -10.448970561070668 1.3383656277301212
-162.47566063977746 -10.452801771045676 1.3340263050592145
-161.9749652294854 -10.456439745058171 1.3296684041341247
-161.47426981919332 -10.459884130562207 1.32529211190475
-160.97357440890124 -10.463134575011834 1.3208976153209906
-160.4728789986092 -10.466190725861102 1.3164851013327445
-159.9721835883171 -10.469052230564062 1.312054756889912
-159.47148817802503 -10.471718736574763 1.3076067689423918
-158.97079276773297 -10.474189891347256 1.3031413244400825
-158.4700973574409 -10.476465342335592 1.298658610332883
-157.9694019471488 -10.478544736993827 1.2941588135706916
-157.46870653685676 -10.480427722776001 1.2896421211034084
-156.96801112656468 -10.482113947136172 1.2851087198809341
-156.4673157162726 -10.48360305752839 1.2805587968531635
-155.96662030598054 -10.4848947014067 1.2759925389700002
-155.46592489568846 -10.48598852622516 1.2714101331813406
-154.96522948539638 -10.486884179437817 1.2668117664370828
-154.46453407510432 -10.487581308498722 1.2621976256871288
-153.96383866481224 -10.488079560861925 1.257567897881374
-153.46314325452016 -10.48837858398148 1.2529227699697212
-152.9624478442281 -10.488478025311435 1.2482624289020676
-152.46175243393603 -10.488377532305838 1.2435870616283107
-151.96105702364395 -10.488076752418744 1.2388968550983521
-151.4603616133519 -10.4875753331042 1.234191996262091
-150.9596662030598 -10.486872921816259 1.229472672069425
-150.45897079276773 -10.485969166008973 1.2247390694702518
-149.95827538247568 -10.484863713136386 1.2199913754144744
-149.4575799721836 -10.483556210652557 1.2152297768519857
-148.9568845618915 -10.482046306011531 1.2104544607326901
-148.45618915159943 -10.480333646667363 1.2056656140064868
-147.95549374130738 -10.4784178800741 1.2008634236232711
-147.4547983310153 -10.476298653685797 1.196048076532946
-146.95410292072324 -10.473975614956496 1.1912197596854068
-146.45340751043116 -10.471448411340255 1.1863786600305537
-145.95271210013908 -10.46871669029112 1.1815249645182866
-145.452016689847 -10.465780099263148 1.1766588600985046
-144.95132127955495 -10.462638285710382 1.171780533721106
-144.45062586926286 -10.459290897086879 1.16689017233599
-143.94993045897078 -10.455737580846685 1.1619879628930536
-143.44923504867873 -10.451977984443854 1.1570740923422007
-142.94853963838665 -10.448011755332434 1.1521487476333285
-142.44784422809457 -10.443838540966478 1.1472121157163317
-141.9471488178025 -10.439457988800038 1.1422643835411148
-141.44645340751043 -10.43486974628716 1.1373057380575724
-140.94575799721835 -10.430073460881895 1.132336366215609
-140.44506258692627 -10.425068780038295 1.1273564549651183
-139.94436717663422 -10.41985535121041 1.1223661912560021
-139.44367176634213 -10.414432821852294 1.1173657620381614
-138.94297635605005 -10.408800839417994 1.112355354261489
-138.442280945758 -10.402959051361561 1.1073351548758885
-137.94158553546592 -10.396907105137048 1.1023053508312581
-137.44089012517384 -10.390644648198501 1.097266129077496
-136.94019471488178 -10.38417132799998 1.0922176765645033
-136.4394993045897 -10.377486791995524 1.087160180242177
-135.93880389429762 -10.370590687639188 1.0820938270604166
-135.43810848400557 -10.363482662385024 1.07701880396912
-134.9374130737135 -10.356162363687083 1.0719352979181909
-134.4367176634214 -10.348629438999414 1.0668434958575221
-133.93602225312935 -10.340883535776069 1.0617435847370165
-133.43532684283727 -10.332924301471097 1.0566357515065712
-132.9346314325452 -10.324751383538548 1.0515201831160872
-132.43393602225314 -10.316364429432475 1.0463970665154618
-131.93324061196105 -10.307763086606927 1.0412665886545933
-131.43254520166897 -10.298947002515957 1.0361289364833843
-130.93184979137692 -10.289915824613615 1.0309842969517313
-130.43115438108484 -10.280669200353948 1.0258328570095316
-129.93045897079276 -10.27120677719101 1.0206748036066888
-129.4297635605007 -10.26152820257885 1.0155103236930985
-128.92906815020862 -10.251633123971517 1.0103396042186596
-128.42837273991654 -10.241521188823066 1.0051628321332733
-127.92767732962449 -10.231192044587546 0.9999801943868358
-127.4269819193324 -10.220645338719004 0.9947918779292508
-126.92628650904032 -10.209880718671497 0.9895980697104112
-126.42559109874827 -10.198897831899076 0.9843989566802196
-125.92489568845619 -10.187696325855782 0.979194725788576
-125.42420027816411 -10.176275847995674 0.973985563985377
-124.92350486787205 -10.164636045772797 0.9687716582205241
-124.42280945757997 -10.152776566641206 0.9635531954439114
-123.92211404728789 -10.140697058054952 0.9583303626054449
-123.42141863699584 -10.128397167468082 0.9531033466550176
-122.92072322670376 -10.115876542334648 0.9478723345425322
-122.42002781641168 -10.103134830108703 0.9426375132178841
-121.91933240611961 -10.090171678244294 0.937399069630978
-121.41863699582754 -10.076986734195478 0.9321571907317066
-120.91794158553546 -10.063579645416295 0.9269120634699743
-120.41724617524339 -10.049950059360809 0.9216638747956769
-119.91655076495132 -10.036097623483057 0.9164128116587134
-119.41585535465924 -10.022021985237098 0.9111590610089846
-118.91515994436718 -10.00772279207698 0.9059028097963897
-118.41446453407511 -9.993199691456754 0.9006442449708243
-117.91376912378303 -9.97845233083047 0.8953835534821901
-117.41307371349096 -9.963480357652179 0.890120922280389
-116.91237830319889 -9.948283419375933 0.8848565383153146
-116.41168289290681 -9.93286116345578 0.879590588536868
-115.91098748261474 -9.917213237345775 0.8743232598949491
-115.41029207232268 -9.901339288499965 0.8690547393394552
-114.9095966620306 -9.8852389643724 0.8637852138202864
-114.40890125173853 -9.868911912417133 0.8585148702873426
-113.90820584144646 -9.852357780088212 0.8532438956905222
-113.40751043115438 -9.835576214839689 0.8479724769797206
-112.90681502086231 -9.818566864125616 0.842700801104844
-112.40611961057024 -9.80132937540004 0.8374290550157846
-111.90542420027816 -9.783863396117017 0.8321574256624449
-111.4047287899861 -9.766168573730594 0.8268860999947258
-110.90403337969401 -9.74824455569482 0.821615264962523
-110.40333796940195 -9.73009098946375 0.8163451075157337
-109.90264255910988 -9.711707522491436 0.8110758146042625
-109.4019471488178 -9.69309380223192 0.8058075731780066
-108.90125173852573 -9.674249476139257 0.8005405701868615
-108.40055632823366 -9.6551741916675 0.7952749925807301
-107.89986091794158 -9.635867596270698 0.7900110273095078
-107.39916550764951 -9.6163293374029 0.7847488613230982
-106.89847009735745 -9.59655906251816 0.7794886815713977
-106.39777468706536 -9.576556419070524 0.7742306750043046
-105.8970792767733 -9.556321054514049 0.768975028571719
-105.39638386648123 -9.535852616302778 0.7637219292235407
-104.89568845618915 -9.515150751890767 0.7584715639096671
-104.39499304589708 -9.49421510873207 0.7532241195799982
-103.89429763560501 -9.473045334280728 0.7479797831844333
-103.39360222531293 -9.451641075990795 0.7427387416728712
-102.89290681502086 -9.430001981316323 0.7375011819952104
-102.3922114047288 -9.408127697711365 0.732267291101349
-101.89151599443672 -9.386017872629965 0.727037255941188
-101.39082058414465 -9.363672153526183 0.7218112634646272
-100.89012517385257 -9.341090187854062 0.7165895006215615
-100.3894297635605 -9.318271623067657 0.7113721543618934
-99.88873435326843 -9.295216106621014 0.7061594116355203
-99.38803894297635 -9.271923285968185 0.7009514593923432
-98.88734353268428 -9.248392808563223 0.6957484845822592
-98.38664812239222 -9.224624321860185 0.6905506741551695
-97.88595271210013 -9.200617473313104 0.6853582150609694
-97.38525730180807 -9.176371910376046 0.6801712942495617
-96.884561891516 -9.151887280503052 0.6749900986708455
-96.38386648122392 -9.12716323114818 0.6698148152747128
-95.88317107093185 -9.102199409765477 0.6646456310110733
-95.38247566063978 -9.076995463808993 0.6594827328298192
-94.8817802503477 -9.05155104073278 0.6543263076808477
-94.38108484005564 -9.025865787990886 0.6491765425140668
-93.88038942976357 -8.999939353037371 0.6440336242793685
-93.37969401947149 -8.973771383326271 0.6388977399266502
-92.87899860917942 -8.947361526311651 0.6337690764058128
-92.37830319888734 -8.92070942944755 0.6286478206667607
-91.87760778859527 -8.893814740188025 0.6235341596593877
-91.3769123783032 -8.866677105987124 0.618428280333593
-90.87621696801112 -8.839296174298896 0.6133303696392773
-90.37552155771905 -8.8116715925774 0.6082406145263364
-89.87482614742699 -8.78380300827668 0.6031592019446728
-89.3741307371349 -8.755690068850784 0.5980863188441856
-88.87343532684284 -8.727332421753763 0.5930221521747723
-88.37273991655077 -8.698729714439677 0.5879668888863301
-87.87204450625869 -8.66988159436257 0.5829207159287635
-87.37134909596662 -8.640787708976491 0.5778838202519645
-86.87065368567455 -8.611447705735491 0.5728563888058411
-86.36995827538247 -8.581861232093628 0.5678386085402818
-85.8692628650904 -8.552027935504936 0.5628306664051927
-85.36856745479834 -8.521947463423485 0.5578327493504713
-84.86787204450626 -8.491619463303314 0.5528450443260184
-84.36717663421419 -8.461043582598476 0.5478677382817279
-83.86648122392211 -8.430219468763022 0.5429010181675022
-83.36578581363004 -8.399146769251006 0.5379450709332407
-82.86509040333797 -8.36782513151647 0.5330000835288424
-82.36439499304589 -8.336254203013477 0.5280662429042029
-81.86369958275382 -8.304433631196067 0.5231437360092266
-81.36300417246176 -8.272363063518293 0.5182327497938126
-80.86230876216968 -8.240042147434204 0.5133334712078512
-80.36161335187761 -8.207470530397861 0.5084460872012504
-79.86091794158554 -8.1746478598633 0.5035707847239057
-79.36022253129346 -8.141573783284583 0.4987077507257162
-78.85952712100139 -8.108247948115755 0.49385717215658115
-78.35883171070932 -8.074670001810864 0.48901923596639957
-77.85813630041724 -8.04083959182397 0.48419412910507237
-77.35744089012518 -8.00675636560912 0.4793820385224969
-76.85674547983311 -7.972419970620356 0.47458315116857047
-76.35605006954103 -7.937830054311737 0.4697976539931958
-75.85535465924896 -7.902986264137313 0.4650257339462666
-75.35465924895689 -7.8678882475511305 0.4602675779776892
-74.85396383866481 -7.832535652007243 0.4555233730373573
-74.35326842837274 -7.796928124959708 0.4507933060751718
-73.85257301808066 -7.761065313862561 0.44607756404102833
-73.3518776077886 -7.7249468661698675 0.4413763338848348
-72.85118219749653 -7.688572429335673 0.43668980255647444
-72.35048678720445 -7.651941650814015 0.4320181570058658
-71.84979137691238 -7.615054178058967 0.4273615841828921
-71.34909596662031 -7.577909658524566 0.42272027103746307
-70.84840055632823 -7.5405077396648625 0.41809440451946894
-70.34770514603616 -7.502848068933909 0.4134841715788177
-69.8470097357441 -7.464930293785757 0.4088897591653961
-69.34631432545201 -7.42675406167446 0.4043113542291156
-68.84561891515995 -7.388319020054064 0.39974914371987186
-68.34492350486788 -7.34962481637862 0.39520331458756214
-67.8442280945758 -7.310671098102178 0.39067405378208203
-67.34353268428373 -7.271457512678795 0.386161548253336
-66.84283727399166 -7.231983707562518 0.3816659849512231
-66.34214186369958 -7.192249330207387 0.37718755082563543
-65.84144645340751 -7.152254028067473 0.37272643282648094
-65.34075104311543 -7.111997448596808 0.3682828179036534
-64.84005563282336 -7.0714792392494505 0.3638568930070502
-64.3393602225313 -7.0306990474794535 0.3594488450865793
-63.838664812239216 -6.989656520740864 0.3550588610921292
-63.33796940194715 -6.948351306487732 0.35068712797360607
-62.83727399165508 -6.906783052174115 0.3463338326809055
-62.336578581363 -6.864951405254059 0.3419991621639284
-61.83588317107093 -6.822856013181601 0.3376833033725685
-61.335187760778865 -6.78049652341082 0.33338644325673567
-60.834492350486784 -6.737872583395744 0.32910876876632006
-60.333796940194716 -6.69498384059043 0.3248504668512208
-59.83310152990265 -6.651829942448932 0.3206117244613406
-59.33240611961057 -6.608410536425298 0.3163927285465768
-58.8317107093185 -6.564725269973573 0.3121936660568267
-58.33101529902643 -6.520773790547819 0.308014723941993
-57.83031988873435 -6.476555745602079 0.30385608915197476
-57.329624478442284 -6.432070782590403 0.2997179486366694
-56.82892906815022 -6.387318548966848 0.29560048934597244
-56.328233657858135 -6.342298692185464 0.2915038982297901
-55.82753824756607 -6.297010859700292 0.28742836223801266
-55.326842837273986 -6.251454698965391 0.28337406832054807
-54.82614742698192 -6.205629857434813 0.2793412034272866
-54.32545201668985 -6.159535982562593 0.2753299545081344
-53.82475660639777 -6.113172721802803 0.2713405085129889
-53.3240611961057 -6.066539722609486 0.2673730523917492
-52.823365785813635 -6.019636632436685 0.26342777309430904
-52.322670375521554 -5.972463098738464 0.2595048575705747
-51.82197496522949 -5.92501876896886 0.2556044927704452
-51.321279554937405 -5.877303290581926 0.25172686564381447
-50.82058414464535 -5.829316311031723 0.24787216314058153
-50.31988873435327 -5.781057477772299 0.24404057221064906
-49.81919332406119 -5.7325264382576915 0.24023227980391798
-49.318497913769136 -5.683722839941963 0.23644747287028028
-48.817802503477054 -5.634646330279169 0.23268633835963864
-48.31710709318497 -5.585296556723334 0.2289490632218904
-47.81641168289292 -5.535673166728548 0.22523583440693468
-47.31571627260084 -5.485775807748835 0.22154683886467946
-46.81502086230876 -5.435604127238241 0.21788226354501322
-46.3143254520167 -5.3851577726508335 0.21424229539783507
-45.81363004172462 -5.33443639144066 0.21062712137305123
-45.31293463143254 -5.283439631061759 0.20703692842055726
-44.81223922114049 -5.232167138968199 0.20347190349025052
-44.311543810848406 -5.180618562614013 0.19993223353202833
-43.810848400556324 -5.1287935494532615 0.19641810549579336
-43.31015299026427 -5.076691746939998 0.1929297063314483
-42.80945757997219 -5.024312802528266 0.18946722298887803
-42.30876216968011 -4.971656363672116 0.18603084241799767
-41.808066759388026 -4.918722077825597 0.18262075156869922
-41.30737134909597 -4.865509592442779 0.17923713739087827
-40.80667593880389 -4.812018554977685 0.1758801868344428
-40.30598052851181 -4.758248612884378 0.17255008684928835
-39.80528511821976 -4.704199413616921 0.16924702438530875
-39.304589707927676 -4.64987060462934 0.16597118639240843
-38.803894297635594 -4.5952618333757 0.16272275982048118
-38.30319888734354 -4.540372747310068 0.15950193161943144
-37.80250347705146 -4.485202993886448 0.15630888873915832
-37.30180806675938 -4.429752220558926 0.15314381812955563
-36.801112656467325 -4.374020074781567 0.1500069067405278
-36.30041724617524 -4.318006204008375 0.1468983415219704
-35.79972183588316 -4.261710255693435 0.14381830942378254
-35.29902642559111 -4.205131877290794 0.1407669973958669
-34.79833101529903 -4.148270716254485 0.13774459238811726
-34.297635605006946 -4.0911264200385755 0.13475128135043984
-33.79694019471489 -4.033698636097112 0.1317872512327249
-33.29624478442281 -3.975987011884142 0.12885268898487684
-32.79554937413073 -3.9179911948537183 0.1259477815567948
-32.294853963838676 -3.8597108324598985 0.12307271589837793
-31.794158553546595 -3.801145572156712 0.12022767895951819
-31.293463143254513 -3.742295061398233 0.1174128576901236
-30.79276773296246 -3.683158947638509 0.11462843904008974
-30.29207232267038 -3.623736878331576 0.11187460995931747
-29.791376912378297 -3.5640285009314874 0.1091515573977006
-29.290681502086244 -3.504033462892315 0.10645946830514535
-28.789986091794162 -3.4437514116680803 0.10379852963154373
-28.28929068150208 -3.383181994712848 0.10116892832680197
-27.788595271210028 -3.3223248594806862 0.09857085134081739
-27.287899860917946 -3.261179653425599 0.09600448562347491
-26.787204450625865 -3.1997460240016786 0.09347001812469496
-26.28650904033381 -3.138023618662976 0.09096763579436956
-25.78581363004173 -3.0760120848635126 0.08849752558238894
-25.28511821974965 -3.013711070057353 0.08605987443866286
-24.784422809457595 -2.9511202216985652 0.08365486931308513
-24.283727399165514 -2.8882391872411675 0.08128269715555309
-23.783031988873432 -2.8250676141392277 0.07894354491597116
-23.28233657858135 -2.761605149846807 0.07663759954423138
-22.781641168289298 -2.697851441817934 0.07436504799023819
-22.280945757997216 -2.633806137506673 0.07212607720389425
-21.780250347705135 -2.5694688843670748 0.0699208741350898
-21.27955493741308 -2.5048393298531892 0.06774962573372928
-20.778859527121 -2.439917121419056 0.06561251894970471
-20.27816411682892 -2.3747019065187396 0.06350974073292409
-19.777468706536865 -2.309193332606283 0.06144147803328476
-19.276773296244784 -2.2433910471357366 0.0594079178006805
-18.776077885952702 -2.1772946975611647 0.057409246985013984
-18.27538247566065 -2.1109039313366 0.055445652536187884
-17.774687065368568 -2.0442183959160958 0.05351732140409243
-17.273991655076486 -1.9772377387537063 0.05162444053863563
-16.773296244784433 -1.9099616073034924 0.04976719688971304
-16.27260083449235 -1.8423896490194864 0.04794577740721667
-15.77190542420027 -1.7745215113557529 0.04616036904105808
-15.271210013908217 -1.706356841766342 0.04441115874113105
-14.770514603616135 -1.6378952877052897 0.0426983334573276
-14.269819193324054 -1.5691364966266534 0.04102208013955749
-13.769123783032 -1.5000801159845012 0.03938258573771097
-13.268428372739919 -1.4307257932328583 0.03778003720169604
-12.767732962447838 -1.3610731758257786 0.036214621481401144
-12.267037552155784 -1.291121911217337 0.034686525526737844
-11.766342141863703 -1.2208716468615521 0.03319593628759282
-11.265646731571621 -1.1503220302124988 0.03174304071387052
-10.764951321279568 -1.0794727087242237 0.03032802575547361
-10.264255910987487 -1.0083233298507595 0.02895107836229588
-9.763560500695405 -0.9368735410461739 0.02761238548424
-9.262865090403352 -0.8651229897645139 0.026312134071199755
-8.76216968011127 -0.7930713234598259 0.02505051107307782
-8.261474269819189 -0.720718189586171 0.02382770343977153
