Polar data for a18sm at Re = 117142.85714285714
Alpha (deg) Cl Cd
-180.0 -8.469971929199774 0.993446976199467
-179.49930458970792 -8.473339237376605 0.9908961158184034
-178.99860917941587 -8.476554636890588 0.9883289353090005
-178.49791376912378 -8.479618105285631 0.9857455639629181
-177.9972183588317 -8.482529620105622 0.9831461310718151
-177.49652294853965 -8.485289158894465 0.9805307659273502
-176.99582753824757 -8.487896699196053 0.9778995978211812
-176.4951321279555 -8.49035221855428 0.9752527560449685
-175.99443671766343 -8.49265569451305 0.9725903698903701
-175.49374130737135 -8.494807104616253 0.9699125686490445
-174.99304589707927 -8.496806426407797 0.967219481612651
-174.49235048678722 -8.498653637431564 0.9645112380728479
-173.99165507649514 -8.500348715231466 0.9617879673212956
-173.49095966620305 -8.501891637351388 0.9590497986496488
-172.990264255911 -8.503282381335232 0.9562968613495716
-172.48956884561892 -8.504520924726895 0.9535292847127191
-171.98887343532684 -8.50560724507028 0.9507471980307519
-171.48817802503476 -8.506541319909271 0.9479507305953282
-170.9874826147427 -8.507323126787778 0.9451400116981062
-170.48678720445062 -8.507952643249688 0.9423151706307461
-169.98609179415854 -8.508429846838908 0.9394763366849052
-169.4853963838665 -8.50875471509932 0.9366236391522426
-168.9847009735744 -8.50892722557484 0.9337572073244184
-168.48400556328232 -8.508947355809351 0.9308771704930908
-167.98331015299027 -8.508815083346759 0.9279836579499173
-167.4826147426982 -8.508530385730953 0.9250767989865588
-166.9819193324061 -8.508093240505834 0.9221567228946718
-166.48122392211405 -8.5075036252153 0.9192235589659162
-165.98052851182197 -8.506761517403246 0.9162774364919523
-165.4798331015299 -8.50586689461357 0.9133184847644354
-164.97913769123784 -8.504819734390168 0.9103468330750276
-164.47844228094576 -8.503620014276942 0.9073626107153862
-163.97774687065368 -8.50226771181778 0.9043659469771698
-163.47705146036162 -8.500762804556587 0.9013569711520381
-162.97635605006954 -8.499105270037255 0.8983358125316497
-162.47566063977746 -8.497295085803689 0.8953026004076635
-161.9749652294854 -8.495332229399775 0.8922574640717377
-161.47426981919332 -8.493216678369418 0.8892005328155291
-160.97357440890124 -8.49094841025651 0.886131935930701
-160.4728789986092 -8.488527402604953 0.8830518027089099
-159.9721835883171 -8.485953632958642 0.879960262441814
-159.47148817802503 -8.483227078861471 0.8768574444210729
-158.97079276773297 -8.480347717857345 0.8737434779383463
-158.4700973574409 -8.47731552749015 0.8706184922852896
-157.9694019471488 -8.474130485303792 0.8674826167535649
-157.46870653685676 -8.470792568842162 0.8643359806348302
-156.96801112656468 -8.467301755649164 0.8611787132207439
-156.4673157162726 -8.463658023268687 0.8580109438029647
-155.96662030598054 -8.459861349244637 0.8548328016731531
-155.46592489568846 -8.455911711120903 0.8516444161229652
-154.96522948539638 -8.451809086441385 0.8484459164440609
-154.46453407510432 -8.44755345274998 0.8452374319281007
-153.96383866481224 -8.443144787590589 0.8420190918667404
-153.46314325452016 -8.4385830685071 0.8387910255516412
-152.9624478442281 -8.43386827304342 0.8355533622744605
-152.46175243393603 -8.429000378743437 0.8323062313268575
-151.96105702364395 -8.423979363151057 0.8290497620004914
-151.4603616133519 -8.418805203810173 0.8257840835870204
-150.9596662030598 -8.413477878264677 0.8225093253781036
-150.45897079276773 -8.407997364058476 0.8192256166654003
-149.95827538247568 -8.402363638735459 0.8159330867405682
-149.4575799721836 -8.396576679839525 0.8126318648952665
-148.9568845618915 -8.39063646491457 0.8093220804211531
-148.45618915159943 -8.384542971504501 0.8060038626098892
-147.95549374130738 -8.378296177153198 0.802677340753131
-147.4547983310153 -8.371896059404573 0.7993426441425407
-146.95410292072324 -8.365342595802515 0.795999902069774
-146.45340751043116 -8.358635763890925 0.7926492438264908
-145.95271210013908 -8.351775541213694 0.7892907987043477
-145.452016689847 -8.34476190531473 0.7859246959950082
-144.95132127955495 -8.337594833737917 0.7825510649901272
-144.45062586926286 -8.330274304027162 0.7791700349813654
-143.94993045897078 -8.322800293726356 0.7757817352603803
-143.44923504867873 -8.3151727803794 0.7723862951188302
-142.94853963838665 -8.307391741530195 0.7689838438483777
-142.44784422809457 -8.299457154722626 0.7655745107406758
-141.9471488178025 -8.2913689975006 0.7621584250873882
-141.44645340751043 -8.283127247408006 0.7587357161801712
-140.94575799721835 -8.27473188198875 0.7553065133106841
-140.44506258692627 -8.266182878786724 0.7518709457705869
-139.94436717663422 -8.257480215345826 0.7484291428515369
-139.44367176634213 -8.248623869209952 0.7449812338451943
-138.94297635605005 -8.239613817923004 0.7415273480432164
-138.442280945758 -8.23045003902887 0.7380676147372615
-137.94158553546592 -8.221132510071458 0.7346021632189904
-137.44089012517384 -8.211661208594654 0.7311311227800606
-136.94019471488178 -8.202036112142364 0.7276546227121322
-136.4394993045897 -8.19225719825848 0.7241727923068625
-135.93880389429762 -8.1823244444869 0.7206857608559106
-135.43810848400557 -8.172237828371523 0.7171936576509349
-134.9374130737135 -8.161997327456241 0.7136966119835962
-134.4367176634214 -8.151602919284954 0.7101947531455503
-133.93602225312935 -8.141054581401567 0.7066882104284596
-133.43532684283727 -8.130352291349967 0.70317711312398
-132.9346314325452 -8.119496026674051 0.6996615905237705
-132.43393602225314 -8.108485764917722 0.6961417719194912
-131.93324061196105 -8.097321483624869 0.6926177866028004
-131.43254520166897 -8.086003160339398 0.6890897638653571
-130.93184979137692 -8.074530772605202 0.6855578329988198
-130.43115438108484 -8.06290429796618 0.6820221232948466
-129.93045897079276 -8.051123713966224 0.6784827640450984
-129.4297635605007 -8.039188998149235 0.6749398845412328
-128.92906815020862 -8.027100128059107 0.671393614074906
-128.42837273991654 -8.014857081239745 0.667844081937781
-127.92767732962449 -8.002459835235035 0.664291417421515
-127.4269819193324 -7.989908367588884 0.6607357498177654
-126.92628650904032 -7.977202655845179 0.6571772084181914
-126.42559109874827 -7.964342677547828 0.6536159225144557
-125.92489568845619 -7.951328410240722 0.6500520213982112
-125.42420027816411 -7.938159831467756 0.6464856343611206
-124.92350486787205 -7.924836918772831 0.6429168906948405
-124.42280945757997 -7.9113596496998415 0.6393459196910326
-123.92211404728789 -7.897728001792691 0.6357728506413535
-123.42141863699584 -7.883941952595263 0.6321978128374613
-122.92072322670376 -7.870001479651473 0.6286209355710172
-122.42002781641168 -7.855906560505195 0.6250423481336774
-121.91933240611961 -7.841657172700353 0.6214621798171022
-121.41863699582754 -7.827253293780823 0.6178805599129514
-120.91794158553546 -7.812694901290511 0.6142976177128817
-120.41724617524339 -7.797981972773309 0.6107134825085513
-119.91655076495132 -7.783114485773124 0.607128283591622
-119.41585535465924 -7.76809241783384 0.6035421502537511
-118.91515994436718 -7.752915746499363 0.599955211786597
-118.41446453407511 -7.737584449313589 0.596367597481818
-117.91376912378303 -7.72209850382041 0.5927794366310749
-117.41307371349096 -7.706457887563731 0.5891908585260252
-116.91237830319889 -7.6906625780874425 0.585601992458327
-116.41168289290681 -7.6747125529354445 0.5820129677196414
-115.91098748261474 -7.658607789651631 0.5784239136016239
-115.41029207232268 -7.642348265779907 0.5748349593959373
-114.9095966620306 -7.625933958864158 0.5712462343942363
-114.40890125173853 -7.609364846448292 0.5676578678881826
-113.90820584144646 -7.592640906076193 0.5640699891694337
-113.40751043115438 -7.575762115291775 0.5604827275296488
-112.90681502086231 -7.558728451638922 0.5568962122604869
-112.40611961057024 -7.541539892661538 0.5533105726536055
-111.90542420027816 -7.524196415903512 0.5497259380006655
-111.4047287899861 -7.506697998908754 0.5461424375933251
-110.90403337969401 -7.489044619221145 0.5425602007232401
-110.40333796940195 -7.471236254384598 0.5389793566820739
-109.90264255910988 -7.453272881942999 0.5354000347614821
-109.4019471488178 -7.435154479440248 0.5318223642531258
-108.90125173852573 -7.416881024420247 0.5282464744486605
-108.40055632823366 -7.398452494426882 0.5246724946397489
-107.89986091794158 -7.3798688670040615 0.5211005541180475
-107.39916550764951 -7.361130119695675 0.5175307821752145
-106.89847009735745 -7.34223623004563 0.5139633081029119
-106.39777468706536 -7.323187175597804 0.5103982611927943
-105.8970792767733 -7.303982933896114 0.5068357707365244
-105.39638386648123 -7.284623482484443 0.5032759660257579
-104.89568845618915 -7.2651087989067005 0.4997189763521547
-104.39499304589708 -7.245438860706775 0.496164931007374
-103.89429763560501 -7.225613645428568 0.49261395928307505
-103.39360222531293 -7.205633130615967 0.48906619047091515
-102.89290681502086 -7.185497293812885 0.4855217538625535
-102.3922114047288 -7.16520611256321 0.48198077874965184
-101.89151599443672 -7.1447595644108315 0.4784433944238614
-101.39082058414465 -7.124157626899661 0.47490973017685023
-100.89012517385257 -7.103400277573586 0.4713799153002721
-100.3894297635605 -7.08248749397651 0.46785407908578447
-99.88873435326843 -7.061419253652327 0.46433235082505087
-99.38803894297635 -7.040195534144926 0.4608148598097278
-98.88734353268428 -7.01881631299822 0.45730173533147
-98.38664812239222 -6.997281567756099 0.4537931066819437
-97.88595271210013 -6.9755912759624525 0.4502891031528037
-97.38525730180807 -6.953745415161192 0.44678985403570726
-96.884561891516 -6.931743962896201 0.44329548862231716
-96.38386648122392 -6.909586896711383 0.4398061362042863
-95.88317107093185 -6.887274194150633 0.436321926073281
-95.38247566063978 -6.864805832757854 0.43284298752095773
-94.8817802503477 -6.84218179007693 0.4293694498389685
-94.38108484005564 -6.819402043651772 0.4259014423189814
-93.88038942976357 -6.79646657102627 0.4224390942526485
-93.37969401947149 -6.773375349744322 0.4189825349316315
-92.87899860917942 -6.750128357349828 0.41553189364759147
-92.37830319888734 -6.726725571386682 0.41208729969218216
-91.87760778859527 -6.703166969398781 0.4086488823570681
-91.3769123783032 -6.679452528930023 0.40521677093390396
-90.87621696801112 -6.655582227524308 0.40179109471434893
-90.37552155771905 -6.6315560427255225 0.39837198299006304
-89.87482614742699 -6.6073739520775785 0.3949595650527028
-89.3741307371349 -6.583035933124359 0.3915539701939309
-88.87343532684284 -6.558541963409775 0.38815532770540206
-88.37273991655077 -6.5338920204777065 0.3847637668787772
-87.87204450625869 -6.509086081872072 0.3813794170057164
-87.37134909596662 -6.484124125136743 0.37800240737787527
-86.87065368567455 -6.459006127815643 0.3746328672869147
-86.36995827538247 -6.433732067452647 0.37127092602449296
-85.8692628650904 -6.408301921591667 0.36791671288226835
-85.36856745479834 -6.382715667776592 0.36457035715190267
-84.86787204450626 -6.356973283551321 0.36123198812505064
-84.36717663421419 -6.33107474645975 0.3579017350933732
-83.86648122392211 -6.305020034045784 0.3545797273485295
-83.36578581363004 -6.278809123853316 0.35126609418217514
-82.86509040333797 -6.252441993426229 0.34796096488597283
-82.36439499304589 -6.225918620308439 0.34466446875157997
-81.86369958275382 -6.199238982043836 0.3413767350706548
-81.36300417246176 -6.172403056176316 0.3380978931348556
-80.86230876216968 -6.145410820249774 0.33482807223584243
-80.36161335187761 -6.118262251808117 0.3315674016652753
-79.86091794158554 -6.090957328395229 0.328316010714809
-79.36022253129346 -6.063496027555017 0.32507402867610613
-78.85952712100139 -6.035878326831371 0.3218415848408259
-78.35883171070932 -6.008104203768189 0.3186188085006222
-77.85813630041724 -5.980173635909376 0.31540582894715763
-77.35744089012518 -5.952086600798824 0.3122027754720932
-76.85674547983311 -5.9238430759804235 0.3090097773670818
-76.35605006954103 -5.89544303899808 0.3058269639237853
-75.85535465924896 -5.866886467395693 0.3026544644338619
-75.35465924895689 -5.838173338717146 0.2994924081889735
-74.85396383866481 -5.8093036305063475 0.29634092448077565
-74.35326842837274 -5.780277320307201 0.2932001426009284
-73.85257301808066 -5.751094385663583 0.2900701918410865
-73.3518776077886 -5.721754804119408 0.2869512014929162
-72.85118219749653 -5.69225855321856 0.2838433008480695
-72.35048678720445 -5.662605610504956 0.2807466191982101
-71.84979137691238 -5.632795953522466 0.2776612858349917
-71.34909596662031 -5.602829559815008 0.2745874300500807
-70.84840055632823 -5.57270640692647 0.271525181135129
-70.34770514603616 -5.542426472400761 0.2684746683817977
-69.8470097357441 -5.511989733781755 0.265436021081744
-69.34631432545201 -5.48139616861336 0.262409368526629
-68.84561891515995 -5.450645754439483 0.2593948400081135
-68.34492350486788 -5.419738468804022 0.25639256481785233
-67.8442280945758 -5.388674289250853 0.2534026722475037
-67.34353268428373 -5.35745319332389 0.25042529158873117
-66.84283727399166 -5.326075158567031 0.24746055213318777
-66.34214186369958 -5.2945401625241555 0.24450858317253701
-65.84144645340751 -5.262848182739178 0.24156951399843543
-65.34075104311543 -5.2309991967559935 0.23864347390254217
-64.84005563282336 -5.198993182118494 0.23573059217651374
-64.3393602225313 -5.166830116370578 0.23283099811201372
-63.838664812239216 -5.134509977056139 0.2299448210006986
-63.33796940194715 -5.102032741719084 0.22707219013422666
-62.83727399165508 -5.069398387903307 0.22421323480425706
-62.336578581363 -5.036606893152696 0.22136808430244806
-61.83588317107093 -5.00365823501115 0.21853686792045793
-61.335187760778865 -4.9705523910225775 0.21571971494994938
-60.834492350486784 -4.9372893387308725 0.21291675468257712
-60.333796940194716 -4.903869055679921 0.2101281164100021
-59.83310152990265 -4.870291519413625 0.20735392942388078
-59.33240611961057 -4.836556707475895 0.20459432301587502
-58.8317107093185 -4.802664597410603 0.2018494264776404
-58.33101529902643 -4.768615166761661 0.19911936910083608
-57.83031988873435 -4.7344083930729735 0.19640428017712477
-57.329624478442284 -4.700044253888427 0.19370428899816208
-56.82892906815022 -4.665522726751915 0.1910195248556054
-56.328233657858135 -4.630843789207342 0.18835011704111917
-55.82753824756607 -4.596007418798601 0.1856961948463555
-55.326842837273986 -4.561013593069601 0.18305788756297706
-54.82614742698192 -4.525862289564225 0.18043532448264213
-54.32545201668985 -4.4905534858263625 0.17782863489700632
-53.82475660639777 -4.455087159399929 0.1752379480977341
-53.3240611961057 -4.419463287828824 0.1726633933764802
-52.823365785813635 -4.383681848656922 0.17010510002490467
-52.322670375521554 -4.34774281942814 0.16756319733466754
-51.82197496522949 -4.311646177686372 0.1650378145974253
-51.321279554937405 -4.275391900975505 0.16252908110483802
-50.82058414464535 -4.238979966839443 0.16003712614856394
-50.31988873435327 -4.202410352822083 0.15756207902026134
-49.81919332406119 -4.1656830364673265 0.15510406901159293
-49.318497913769136 -4.128797995319063 0.15266322541421165
-48.817802503477054 -4.091755206921187 0.15023967751977754
-48.31710709318497 -4.054554648817602 0.14783355461995243
-47.81641168289292 -4.0171962985522125 0.14544498600639458
-47.31571627260084 -3.9796801336689014 0.14307410097076226
-46.81502086230876 -3.9420061317115667 0.14072102880471196
-46.3143254520167 -3.9041742702241122 0.13838589879990373
-45.81363004172462 -3.866184526750446 0.1360688402479994
-45.31293463143254 -3.8280368788344403 0.13376998244065544
-44.81223922114049 -3.7897313040199996 0.13148945466952924
-44.311543810848406 -3.751267779851035 0.12922738622627997
-43.810848400556324 -3.7126462838714303 0.12698390640256854
-43.31015299026427 -3.6738667936250855 0.12475914449005324
-42.80945757997219 -3.6349292866558947 0.12255322978038877
-42.30876216968011 -3.5958337405077585 0.1203662915652414
-41.808066759388026 -3.5565801327245814 0.11819845913626228
-41.30737134909597 -3.51716844085025 0.11604986178511592
-40.80667593880389 -3.4775986424286613 0.11392062880345968
-40.30598052851181 -3.4378707150037093 0.11181088948295007
-39.80528511821976 -3.3979846361193196 0.10972077311524978
-39.304589707927676 -3.3579403833193466 0.10765040899201175
-38.803894297635594 -3.317737934147709 0.10559992640490137
-38.30319888734354 -3.2773772661483185 0.10356945464557246
-37.80250347705146 -3.2368583568650435 0.10155912300568773
-37.30180806675938 -3.196181183841785 0.09956906077690189
-36.801112656467325 -3.1553457246224617 0.09759939725087766
-36.30041724617524 -3.11435195675096 0.09565026171927063
-35.79972183588316 -3.073199857771163 0.09372178347373997
-35.29902642559111 -3.031889405226989 0.09181409180594749
-34.79833101529903 -2.990420576662314 0.0899273160075488
-34.297635605006946 -2.9487933496210643 0.08806158537020395
-33.79694019471489 -2.9070077016471116 0.08621702918557386
-33.29624478442281 -2.86506361028435 0.08439377674531237
-32.79554937413073 -2.822961053076694 0.08259195734108218
-32.294853963838676 -2.780700007568045 0.08081170026454157
-31.794158553546595 -2.738280451302271 0.07905313480734702
-31.293463143254513 -2.695702361823295 0.07731639026116036
-30.79276773296246 -2.652965716675014 0.07560159591763807
-30.29207232267038 -2.6100704934013037 0.07390888106844287
-29.791376912378297 -2.567016669546072 0.07223837500522592
-29.290681502086244 -2.5238042226532342 0.07059020701965349
-28.789986091794162 -2.4804331302666625 0.06896450640338028
-28.28929068150208 -2.4369033699302647 0.06736140244806724
-27.788595271210028 -2.3932149191879346 0.06578102444537351
-27.287899860917946 -2.349367755583566 0.06422350168695382
-26.787204450625865 -2.3053618566610665 0.06268896346447086
-26.28650904033381 -2.261197199964337 0.06117753906958648
-25.78581363004173 -2.2168737630372504 0.05968935779395271
-25.28511821974965 -2.172391523423714 0.0582245489292296
-24.784422809457595 -2.12775045866765 0.05678324176707897
-24.283727399165514 -2.0829505463129236 0.05536556559915465
-23.783031988873432 -2.037991763903436 0.05397164971712201
-23.28233657858135 -1.9928740889831018 0.052601623412634885
-22.781641168289298 -1.9475974990958007 0.05125561597735509
-22.280945757997216 -1.9021619717854477 0.049933756702941784
-21.780250347705135 -1.856567484595908 0.048636174881048794
-21.27955493741308 -1.8108140150711178 0.04736299980334149
-20.778859527121 -1.7649015407549498 0.04611436076147371
-20.27816411682892 -1.7188300391913045 0.044890387047107266
-19.777468706536865 -1.67259948792409 0.043691207951897765
-19.276773296244784 -1.6262098644971927 0.04251695276750525
-18.776077885952702 -1.5796611464544994 0.04136775078559066
-18.27538247566065 -1.532953311339932 0.040243731297811364
-17.774687065368568 -1.4860863366973702 0.039145023595828304
-17.273991655076486 -1.4390602000707147 0.03807175697129353
-16.773296244784433 -1.3918748790038662 0.03702406071587419
-16.27260083449235 -1.3445303510407185 0.036002064121224114
-15.77190542420027 -1.2970265937251724 0.035005896479003346
-15.271210013908217 -1.2493635846011215 0.03403568708087015
-14.770514603616135 -1.2015413012124596 0.03309156521848369
-14.269819193324054 -1.1535597211030875 0.03217366018350401
-13.769123783032 -1.1054188218169059 0.031282101267588486
-13.268428372739919 -1.0571185808978014 0.030417017762396276
-12.767732962447838 -1.008658975889682 0.029578538959583872
-12.267037552155784 -0.9600399843364413 0.02876679415081576
-11.766342141863703 -0.9112615837819802 0.027981912627743105
-11.265646731571621 -0.8623237517701923 0.027224023682033055
-10.764951321279568 -0.8132264658449642 0.026493256605336774
-10.264255910987487 -0.7639697035502038 0.025789740689319635
-9.763560500695405 -0.714553442429819 0.025113605225634578
-9.262865090403352 -0.6649776600276822 0.0244649795059452
-8.76216968011127 -0.6152423338877013 0.023843992821906218
-8.261474269819189 -0.5653474415537842 0.02325077446518123
