Polar data for a18sm at Re = 558965.5172413794
Alpha (deg) Cl Cd
-180.0 -3.031908218823726 1.938058702844095
-179.49930458970792 -3.0305649370910572 1.9357959403002305
-178.99860917941587 -3.029159775306298 1.9335003754178495
-178.49791376912378 -3.027692950022513 1.9311721362112586
-177.9972183588317 -3.026164677792776 1.9288113506947584
-177.49652294853965 -3.0245751751701544 1.9264181468826538
-176.99582753824757 -3.022924658707719 1.9239926527892524
-176.4951321279555 -3.0212133449585377 1.9215349964288546
-175.99443671766343 -3.0194414504756777 1.9190453058157682
-175.49374130737135 -3.0176091918122143 1.9165237089642952
-174.99304589707927 -3.015716785521213 1.9139703338887417
-174.49235048678722 -3.01376444815574 1.9113853086034125
-173.99165507649514 -3.011752396268875 1.9087687611226098
-173.49095966620305 -3.0096808464136746 1.9061208194606387
-172.990264255911 -3.0075500151432166 1.903441611631805
-172.48956884561892 -3.0053601190105663 1.9007312656504116
-171.98887343532684 -3.003111374568798 1.8979899095307646
-171.48817802503476 -3.0008039983709764 1.895217671287168
-170.9874826147427 -2.9984382069701727 1.892414678933925
-170.48678720445062 -2.9960142169194572 1.8895810604853411
-169.98609179415854 -2.993532244771897 1.8867169439557199
-169.4853963838665 -2.990992507080561 1.8838224573593652
-168.9847009735744 -2.9883952203985213 1.8808977287105837
-168.48400556328232 -2.985740601278845 1.8779428860236786
-167.98331015299027 -2.983028866274605 1.874958057312955
-167.4826147426982 -2.9802602319388676 1.8719433705927166
-166.9819193324061 -2.977434914824702 1.8688989538772678
-166.48122392211405 -2.9745531314851785 1.8658249351809115
-165.98052851182197 -2.971615098473368 1.8627214425179572
-165.4798331015299 -2.9686210323423374 1.8595886039027045
-164.97913769123784 -2.9655711496451556 1.8564265473494583
-164.47844228094576 -2.9624656669348948 1.8532354008725263
-163.97774687065368 -2.959304800764622 1.850015292486207
-163.47705146036162 -2.9560887676874064 1.8467663502048117
-162.97635605006954 -2.9528177842563217 1.84348870204264
-162.47566063977746 -2.9494920670244333 1.8401824760139986
-161.9749652294854 -2.94611183254481 1.8368478001331925
-161.47426981919332 -2.942677297370521 1.833484802414522
-160.97357440890124 -2.939188678054638 1.8300936108722958
-160.4728789986092 -2.93564619115023 1.8266743535208187
-159.9721835883171 -2.932050053210368 1.8232271583743904
-159.47148817802503 -2.9284004807881168 1.819752153447321
-158.97079276773297 -2.9246976904365525 1.8162494667539122
-158.4700973574409 -2.920941898708735 1.8127192263084668
-157.9694019471488 -2.9171333221577402 1.8091615601252917
-157.46870653685676 -2.913272177336637 1.805576596218691
-156.96801112656468 -2.9093586807984924 1.8019644626029676
-156.4673157162726 -2.9053930490963786 1.7983252872924285
-155.96662030598054 -2.9013754987833646 1.7946591983013758
-155.46592489568846 -2.897306246412519 1.7909663236441153
-154.96522948539638 -2.8931855085369076 1.7872467913349503
-154.46453407510432 -2.8890135017096075 1.7835007293881866
-153.96383866481224 -2.8847904424836823 1.7797282658181264
-153.46314325452016 -2.8805165474122028 1.7759295286390782
-152.9624478442281 -2.8761920330482376 1.7721046458653424
-152.46175243393603 -2.871817115944859 1.768253745511225
-151.96105702364395 -2.867392012655131 1.76437695559103
-151.4603616133519 -2.8629169397321306 1.7604744041190623
-150.9596662030598 -2.85839211372892 1.7565462191096268
-150.45897079276773 -2.853817751198571 1.7525925285770267
-149.95827538247568 -2.8491940686941586 1.7486134605355679
-149.4575799721836 -2.8445212827687403 1.7446091429995534
-148.9568845618915 -2.839799609975394 1.7405797039832873
-148.45618915159943 -2.8350292668671884 1.7365252715010755
-147.95549374130738 -2.8302104699971924 1.7324459735672229
-147.4547983310153 -2.825343435918475 1.7283419381960325
-146.95410292072324 -2.8204283811841027 1.7242132934018095
-146.45340751043116 -2.81546552234715 1.720060167198857
-145.95271210013908 -2.8104550759606806 1.7158826876014805
-145.452016689847 -2.80539725857777 1.7116809826239854
-144.95132127955495 -2.8002922867514854 1.7074551802806746
-144.45062586926286 -2.795140377034892 1.7032054085858521
-143.94993045897078 -2.7899417459810625 1.698931795553824
-143.44923504867873 -2.784696610143069 1.694634469198893
-142.94853963838665 -2.77940518607398 1.6903135575353672
-142.44784422809457 -2.774067690326861 1.6859691885775467
-141.9471488178025 -2.768684339454781 1.6816014903397376
-141.44645340751043 -2.763255350010814 1.677210590836243
-140.94575799721835 -2.7577809385480254 1.6727966180813694
-140.44506258692627 -2.7522613216194873 1.668359700089421
-139.94436717663422 -2.7466967157782722 1.6638999648747028
-139.44367176634213 -2.74108733757744 1.659417540451517
-138.94297635605005 -2.7354334035700685 1.6549125548341685
-138.442280945758 -2.7297351303092228 1.6503851360369632
-137.94158553546592 -2.7239927343479753 1.6458354120742051
-137.44089012517384 -2.7182064322393913 1.6412635109601974
-136.94019471488178 -2.712376440536543 1.6366695607092467
-136.4394993045897 -2.706502975792503 1.6320536893356545
-135.93880389429762 -2.7005862545603314 1.6274160248537275
-135.43810848400557 -2.6946264933931072 1.6227566952777697
-134.9374130737135 -2.688623908843894 1.618075828622086
-134.4367176634214 -2.682578717465761 1.6133735529009778
-133.93602225312935 -2.6764911358117836 1.6086499961287555
-133.43532684283727 -2.6703613804350237 1.6039052863197167
-132.9346314325452 -2.6641896678885573 1.59913955148817
-132.43393602225314 -2.6579762147254478 1.5943529196484179
-131.93324061196105 -2.6517212374987675 1.5895455188147676
-131.43254520166897 -2.6454249527615854 1.5847174770015215
-130.93184979137692 -2.6390875770669737 1.5798689222229847
-130.43115438108484 -2.6327093269679978 1.5749999824934602
-129.93045897079276 -2.6262904190177263 1.570110785827253
-129.4297635605007 -2.619831069769237 1.5652014602386715
-128.92906815020862 -2.613331495775583 1.560272133742011
-128.42837273991654 -2.6067919135898503 1.555322934351585
-127.92767732962449 -2.600212539765103 1.5503539900816945
-127.4269819193324 -2.593593590854404 1.5453654289466423
-126.92628650904032 -2.5869352834108295 1.5403573789607343
-126.42559109874827 -2.5802378339874483 1.5353299681382773
-125.92489568845619 -2.5735014591373275 1.5302833244935716
-125.42420027816411 -2.5667263754135377 1.525217576040926
-124.92350486787205 -2.5599127993691475 1.5201328507946397
-124.42280945757997 -2.5530609475572295 1.5150292767690214
-123.92211404728789 -2.5461710365308505 1.5099069819783744
-123.42141863699584 -2.5392432828430778 1.5047660944370016
-122.92072322670376 -2.5322779030469835 1.4996067421592072
-122.42002781641168 -2.5252751136956366 1.4944290531592987
-121.91933240611961 -2.518235131342106 1.4892331554515785
-121.41863699582754 -2.511158172539462 1.4840191770503532
-120.91794158553546 -2.5040444538407716 1.4787872459699243
-120.41724617524339 -2.4968941917991074 1.4735374902245975
-119.91655076495132 -2.4897076029675382 1.4682700378286733
-119.41585535465924 -2.482484903899131 1.4629850167964655
-118.91515994436718 -2.4752263111469546 1.4576825551422712
-118.41446453407511 -2.467932041264083 1.452362780880396
-117.91376912378303 -2.4606023108035835 1.4470258220251442
-117.41307371349096 -2.453237336318523 1.4416718065908232
-116.91237830319889 -2.445837334361972 1.4363008625917335
-116.41168289290681 -2.438402521487001 1.4309131180421801
-115.91098748261474 -2.4309331142466846 1.4255087009564698
-115.41029207232268 -2.4234293291940823 1.4200877393489073
-114.9095966620306 -2.415891382882265 1.4146503612337933
-114.40890125173853 -2.4083194918643116 1.4091966946254353
-113.90820584144646 -2.4007138726932773 1.4037268675381382
-113.40751043115438 -2.3930747419222413 1.3982410079862018
-112.90681502086231 -2.3854023161042726 1.392739243983937
-112.40611961057024 -2.377696811792436 1.3872217035456436
-111.90542420027816 -2.3699584455398046 1.3816885146856273
-111.4047287899861 -2.36218743389945 1.3761398054181948
-110.90403337969401 -2.3543839934244346 1.370575703757644
-110.40333796940195 -2.346548340667834 1.364996337718287
-109.90264255910988 -2.3386806921827112 1.359401835314426
-109.4019471488178 -2.3307812645221446 1.353792324560364
-108.90125173852573 -2.322850274239194 1.3481679334704044
-108.40055632823366 -2.3148879378869314 1.342528790058853
-107.89986091794158 -2.3068944720184312 1.3368750223400128
-107.39916550764951 -2.2988700931867605 1.3312067583281941
-106.89847009735745 -2.290815017944986 1.3255241260376966
-106.39777468706536 -2.282729462846179 1.3198272534828217
-105.8970792767733 -2.2746136444434093 1.3141162686778796
-105.39638386648123 -2.2664677792897443 1.3083912996371698
-104.89568845618915 -2.2582920839382528 1.302652474375001
-104.39499304589708 -2.250086774942009 1.2968999209056788
-103.89429763560501 -2.2418520688540813 1.291133767243504
-103.39360222531293 -2.23358818222753 1.2853541414027794
-102.89290681502086 -2.2252953316154382 1.279561171397811
-102.3922114047288 -2.216973733570864 1.2737549852429073
-101.89151599443672 -2.2086236046468812 1.2679357109523661
-101.39082058414465 -2.2002451613965626 1.2621034765404986
-100.89012517385257 -2.191838620372975 1.2562584100216034
-100.3894297635605 -2.1834041981291854 1.2504006394099882
-99.88873435326843 -2.1749421112182645 1.2445302927199589
-99.38803894297635 -2.1664525761932847 1.238647497965814
-98.88734353268428 -2.1579358096073094 1.2327523831618648
-98.38664812239222 -2.1493920280134127 1.2268450763224117
-97.88595271210013 -2.1408214479646617 1.220925705461758
-97.38525730180807 -2.1322242860141323 1.214994398594212
-96.884561891516 -2.1236007587148826 1.209051283734076
-96.38386648122392 -2.1149510826199887 1.2030964888956561
-95.88317107093185 -2.1062754742825174 1.1971301420932552
-95.38247566063978 -2.097574150255541 1.1911523713411765
-94.8817802503477 -2.0888473270921235 1.185163304653723
-94.38108484005564 -2.0800952213453456 1.1791630700452054
-93.88038942976357 -2.0713180495682657 1.1731517955299247
-93.37969401947149 -2.0625160283139543 1.1671296091221823
-92.87899860917942 -2.053689374135491 1.1610966388362896
-92.37830319888734 -2.0448383035859283 1.1550530126865433
-91.87760778859527 -2.035963033218348 1.1489988586872546
-91.3769123783032 -2.0270637795858235 1.142934304852724
-90.87621696801112 -2.0181407592414065 1.1368594791972566
-90.37552155771905 -2.0091941887381815 1.130774509735159
-89.87482614742699 -2.0002242846292084 1.1246795244807306
-89.3741307371349 -1.9912312634675686 1.1185746514482802
-88.87343532684284 -1.9822153418063202 1.1124600186521107
-88.37273991655077 -1.9731767361985337 1.1063357541065273
-87.87204450625869 -1.9641156631972905 1.1002019858258365
-87.37134909596662 -1.9550323393556415 1.0940588418243327
-86.87065368567455 -1.9459269812266697 1.0879064501163331
-86.36995827538247 -1.9367998053634423 1.0817449387161358
-85.8692628650904 -1.927651028319021 1.0755744356380454
-85.36856745479834 -1.9184808666464832 1.0693950688963707
-84.86787204450626 -1.9092895368988927 1.0632069665054111
-84.36717663421419 -1.900077255629327 1.0570102564794717
-83.86648122392211 -1.8908442393908498 1.050805066832859
-83.36578581363004 -1.8815907047365314 1.0445915255798746
-82.86509040333797 -1.8723168682194427 1.0383697607348232
-82.36439499304589 -1.8630229463926469 1.0321399003120153
-81.86369958275382 -1.85370915580922 1.0259020723257486
-81.36300417246176 -1.8443757130222274 1.0196564047903263
-80.86230876216968 -1.8350228345847377 1.0134030257200586
-80.36161335187761 -1.8256507370498287 1.007142063129247
-79.86091794158554 -1.8162596369705568 1.000873645032198
-79.36022253129346 -1.8068497509000085 0.9945978994432132
-78.85952712100139 -1.7974212953912367 0.9883149543765992
-78.35883171070932 -1.7879744869973138 0.9820249378466539
-77.85813630041724 -1.778509542271319 0.9757279778676928
-77.35744089012518 -1.7690266777663162 0.9694242024540174
-76.85674547983311 -1.7595261100353667 0.9631137396199236
-76.35605006954103 -1.7500080556315538 0.9567967173797254
-75.85535465924896 -1.740472731107932 0.9504732637477205
-75.35465924895689 -1.7309203530175843 0.9441435067382173
-74.85396383866481 -1.7213511379135724 0.937807574365521
-74.35326842837274 -1.7117653023489794 0.9314655946439345
-73.85257301808066 -1.702163062876842 0.9251176955877611
-73.3518776077886 -1.6925446360502683 0.9187640052113075
-72.85118219749653 -1.682910238422302 0.9124046515288733
-72.35048678720445 -1.6732600865460228 0.9060397625547705
-71.84979137691238 -1.6635943969744957 0.8996694663032969
-71.34909596662031 -1.6539133862607969 0.8932938907887611
-70.84840055632823 -1.6442172709579879 0.8869131640254662
-70.34770514603616 -1.634506267619141 0.8805274140277188
-69.8470097357441 -1.6247805927973218 0.8741367688098134
-69.34631432545201 -1.6150404630456094 0.8677413563860672
-68.84561891515995 -1.6052860949170658 0.8613413047707799
-68.34492350486788 -1.595517704964763 0.8549367419782581
-67.8442280945758 -1.5857355097417667 0.8485277960227962
-67.34353268428373 -1.5759397258011525 0.8421145949187114
-66.84283727399166 -1.5661305696959857 0.8356972666803018
-66.34214186369958 -1.5563082579793353 0.829275939321872
-65.84144645340751 -1.5464730072042734 0.8228507408577255
-65.34075104311543 -1.5366250339238618 0.8164217993021723
-64.84005563282336 -1.5267645546911837 0.8099892426695103
-64.3393602225313 -1.5168917860592934 0.8035531989740481
-63.838664812239216 -1.507006944581267 0.7971137962300869
-63.33796940194715 -1.4971102468101805 0.7906711624519354
-62.83727399165508 -1.4872019092990953 0.7842254256538965
-62.336578581363 -1.4772821486010805 0.77777671385027
-61.83588317107093 -1.4673511812692013 0.7713251550553644
-61.335187760778865 -1.4574092238565441 0.764870877283488
-60.834492350486784 -1.4474564929161602 0.7584140085489353
-60.333796940194716 -1.4374932050011289 0.7519546768660181
-59.83310152990265 -1.4275195766645155 0.7454930102490416
-59.33240611961057 -1.4175358244593959 0.739029136712307
-58.8317107093185 -1.4075421649388282 0.7325631842701157
-58.33101529902643 -1.3975388146558885 0.726095280936778
-57.83031988873435 -1.3875259901636525 0.7196255547265971
-57.329624478442284 -1.3775039080151714 0.7131541336538796
-56.82892906815022 -1.3674727847635317 0.7066811457329216
-56.328233657858135 -1.3574328369618023 0.7002067189780352
-55.82753824756607 -1.3473842811630377 0.6937309814035217
-55.326842837273986 -1.3373273339203209 0.6872540610236879
-54.82614742698192 -1.3272622117867172 0.6807760858528369
-54.32545201668985 -1.3171891313152955 0.67429718390527
-53.82475660639777 -1.3071083090591245 0.6678174831952977
-53.3240611961057 -1.297019961571273 0.6613371117372175
-52.823365785813635 -1.286924305404817 0.65485619754534
-52.322670375521554 -1.2768215571128216 0.6483748686339681
-51.82197496522949 -1.2667119332483487 0.6418932530174033
-51.321279554937405 -1.2565956503644813 0.6354114787099523
-50.82058414464535 -1.2464729250142774 0.6289296737259218
-50.31988873435327 -1.236343973750806 0.6224479660796096
-49.81919332406119 -1.226209013127157 0.6159664837853296
-49.318497913769136 -1.216068259696371 0.609485354857376
-48.817802503477054 -1.2059219300115345 0.6030047073100608
-48.31710709318497 -1.1957702406257091 0.5965246691576838
-47.81641168289292 -1.185613408091971 0.5900453684145532
-47.31571627260084 -1.1754516489633922 0.5835669330949707
-46.81502086230876 -1.165285179793024 0.5770894912132409
-46.3143254520167 -1.15511421713396 0.5706131707836708
-45.81363004172462 -1.1449389775392547 0.5641380998205652
-45.31293463143254 -1.1347596775619806 0.5576644063382237
-44.81223922114049 -1.124576533755203 0.5511922183509494
-44.311543810848406 -1.1143897626719976 0.5447216638730563
-43.810848400556324 -1.10419958086543 0.5382528709188403
-43.31015299026427 -1.0940062048885757 0.5317859675026118
-42.80945757997219 -1.0838098512944931 0.5253210816386702
-42.30876216968011 -1.0736107366362653 0.5188583413413206
-41.808066759388026 -1.0634090774669431 0.5123978746248679
-41.30737134909597 -1.0532050903396168 0.5059398095036205
-40.80667593880389 -1.0429989918073446 0.49948427399187983
-40.30598052851181 -1.032790998423195 0.49303139610394914
-39.80528511821976 -1.0225813267402444 0.48658130385413684
-39.304589707927676 -1.0123701933115505 0.48013412525674076
-38.803894297635594 -1.002157814690193 0.4736899883260676
-38.30319888734354 -0.9919444074292372 0.4672490210764277
-37.80250347705146 -0.9817301880817553 0.4608113515221223
-37.30180806675938 -0.971515373200809 0.4543771076774476
-36.801112656467325 -0.9613001793394815 0.4479464175567191
-36.30041724617524 -0.9510848230508309 0.44151940917423643
-35.79972183588316 -0.9408695208879259 0.43509621054430453
-35.29902642559111 -0.9306544894038424 0.4286769496812283
-34.79833101529903 -0.9204399451516494 0.42226175459931453
-34.297635605006946 -0.910226104684412 0.415850753312861
-33.79694019471489 -0.9000131845551991 0.4094440738361797
-33.29624478442281 -0.8898014013170794 0.40304184418356676
-32.79554937413073 -0.8795909715231325 0.3966441923693324
-32.294853963838676 -0.86938211172642 0.39025124640778336
-31.794158553546595 -0.8591750384800072 0.383863134313221
-31.293463143254513 -0.8489699683369736 0.3774799840999467
-30.79276773296246 -0.8387671178503808 0.37110192378227075
-30.29207232267038 -0.8285667035732942 0.36472908137449095
-29.791376912378297 -0.8183689420587967 0.3583615848909158
-29.290681502086244 -0.8081740498599466 0.351999562345852
-28.789986091794162 -0.7979822435298196 0.3456431417535956
-28.28929068150208 -0.7877937396214847 0.33929245112846046
-27.788595271210028 -0.7776087546880106 0.33294761848475146
-27.287899860917946 -0.7674275052824555 0.3266087718367611
-26.787204450625865 -0.7572502079579024 0.32027603919880326
-26.28650904033381 -0.7470770792674237 0.3139495485851846
-25.78581363004173 -0.736908335764074 0.30762942801020293
-25.28511821974965 -0.7267441940009292 0.301315805488165
-24.784422809457595 -0.7165848705310651 0.2950088090333775
-24.283727399165514 -0.7064305819075436 0.28870856666014005
-23.783031988873432 -0.6962815446834405 0.2824152063827629
-23.28233657858135 -0.686137975411814 0.27612885621554567
-22.781641168289298 -0.6760000906457471 0.2698496441727933
-22.280945757997216 -0.6658681069383015 0.263577698268816
-21.780250347705135 -0.6557422408425424 0.2573131465179099
-21.27955493741308 -0.6456227089115529 0.2510561169343852
-20.778859527121 -0.6355097276983876 0.24480673753254328
-20.27816411682892 -0.6254035137561225 0.23856513632668913
-19.777468706536865 -0.6153042836378368 0.23233144133112765
-19.276773296244784 -0.6052122538965747 0.22610578056016378
-18.776077885952702 -0.5951276410854263 0.21988828202810068
-18.27538247566065 -0.5850506617574602 0.2136790737492486
-17.774687065368568 -0.5749815324657348 0.20747828373790184
-17.273991655076486 -0.564920469763333 0.2012860400083724
-16.773296244784433 -0.5548676902033058 0.19510247057495994
-16.27260083449235 -0.544823410338747 0.1889277034519729
-15.77190542420027 -0.5347878467227076 0.18276186665371624
-15.271210013908217 -0.5247612159082529 0.17660508819449133
-14.770514603616135 -0.5147437344484729 0.17045749608859956
-14.269819193324054 -0.5047356188964152 0.16431921835035296
-13.769123783032 -0.49473708580516984 0.1581903829940529
-13.268428372739919 -0.48474835172778796 0.1520711180340008
-12.767732962447838 -0.4747696332173561 0.14596155148450513
-12.267037552155784 -0.4648011468269182 0.13986181135986725
-11.766342141863703 -0.4548431091095715 0.13377202567439567
-11.265646731571621 -0.4448957366183741 0.1276923224423882
-10.764951321279568 -0.43495924590639135 0.12162282967815513
-10.264255910987487 -0.425033853526692 0.1155636753959996
-9.763560500695405 -0.41511849791376904 0.10951381084840049
-9.262865090403352 -0.40681724617524356 0.10334210013908222
-8.76216968011127 -0.4042086230876217 0.09701906815020868
