Polar data for a18sm at Re = 277142.85714285716
Alpha (deg) Cl Cd
-180.0 -24.255223359010397 0.1429390507831364
-179.49930458970792 -24.229808784714212 0.1428349910195331
-178.99860917941587 -24.203963787150688 0.1427296876310683
-178.49791376912378 -24.17768994034766 0.14262313846308136
-177.9972183588317 -24.15098881833295 0.14251534136091148
-177.49652294853965 -24.123861995134366 0.14240629416989803
-176.99582753824757 -24.09631104477972 0.14229599473538027
-176.4951321279555 -24.06833754129686 0.14218444090269744
-175.99443671766343 -24.039943058713565 0.1420716305171889
-175.49374130737135 -24.01112917105768 0.1419575614241939
-174.99304589707927 -23.981897452357043 0.14184223146905175
-174.49235048678722 -23.95224947663944 0.14172563849710174
-173.99165507649514 -23.922186817932715 0.1416077803536831
-173.49095966620305 -23.891711050264664 0.1414886548841352
-172.990264255911 -23.860823747663122 0.14136825993379726
-172.48956884561892 -23.82952648415591 0.14124659334800863
-171.98887343532684 -23.79782083377083 0.14112365297210855
-171.48817802503476 -23.765708370535723 0.14099943665143633
-170.9874826147427 -23.733190668478418 0.14087394223133126
-170.48678720445062 -23.700269301626694 0.14074716755713262
-169.98609179415854 -23.666945844008414 0.1406191104741797
-169.4853963838665 -23.633221869651347 0.1404897688278118
-168.9847009735744 -23.599098952583358 0.1403591404633682
-168.48400556328232 -23.564578666832265 0.1402272232261882
-167.98331015299027 -23.529662586425875 0.14009401496161106
-167.4826147426982 -23.494352285391987 0.13995951351497607
-166.9819193324061 -23.458649337758455 0.13982371673162255
-166.48122392211405 -23.42255531755308 0.1396866224568898
-165.98052851182197 -23.38607179880371 0.13954822853611704
-165.4798331015299 -23.349200355538105 0.1394085328146436
-164.97913769123784 -23.311942561784125 0.1392675331378088
-164.47844228094576 -23.274299991569595 0.13912522735095187
-163.97774687065368 -23.236274218922336 0.13898161329941214
-163.47705146036162 -23.19786681787014 0.13883668882852887
-162.97635605006954 -23.159079362440853 0.13869045178364137
-162.47566063977746 -23.119913426662283 0.13854290001008893
-161.9749652294854 -23.080370584562235 0.13839403135321082
-161.47426981919332 -23.040452410168545 0.13824384365834633
-160.97357440890124 -23.00016047750906 0.13809233477083477
-160.4728789986092 -22.959496360611556 0.13793950253601542
-159.9721835883171 -22.918461633503878 0.13778534479922755
-159.47148817802503 -22.877057870213836 0.13762985940581046
-158.97079276773297 -22.83528664476926 0.13747304420110346
-158.4700973574409 -22.793149531197923 0.1373148970304458
-157.9694019471488 -22.750648103527713 0.1371554157391768
-157.46870653685676 -22.707783935786413 0.13699459817263573
-156.96801112656468 -22.66455860200185 0.1368324421761619
-156.4673157162726 -22.62097367620183 0.13666894559509457
-155.96662030598054 -22.57703073241419 0.13650410627477302
-155.46592489568846 -22.53273134466676 0.13633792206053658
-154.96522948539638 -22.488077086987307 0.13617039079772453
-154.46453407510432 -22.44306953340372 0.13600151033167615
-153.96383866481224 -22.397710257943775 0.13583127850773072
-153.46314325452016 -22.35200083463531 0.1356596931712275
-152.9624478442281 -22.30594283750614 0.1354867521675059
-152.46175243393603 -22.259537840584077 0.13531245334190503
-151.96105702364395 -22.212787417896923 0.1351367945397643
-151.4603616133519 -22.16569314347254 0.13495977360642297
-150.9596662030598 -22.11825659133874 0.13478138838722034
-150.45897079276773 -22.07047933552332 0.13460163672749564
-149.95827538247568 -22.022362950054106 0.1344205164725883
-149.4575799721836 -21.97390900895893 0.13423802546783742
-148.9568845618915 -21.925119086265585 0.1340541615585824
-148.45618915159943 -21.875994756001933 0.13386892259016256
-147.95549374130738 -21.826537592195752 0.13368230640791712
-147.4547983310153 -21.77674916887489 0.13349431085718536
-146.95410292072324 -21.726631060067152 0.1333049337833066
-146.45340751043116 -21.67618483980036 0.13311417303162015
-145.95271210013908 -21.625412082102347 0.13292202644746526
-145.452016689847 -21.574314361000933 0.13272849187618121
-144.95132127955495 -21.522893250523882 0.13253356716310732
-144.45062586926286 -21.4711503246991 0.13233725015358289
-143.94993045897078 -21.41908715755432 0.13213953869294714
-143.44923504867873 -21.366705323117433 0.13194043062653948
-142.94853963838665 -21.314006395416246 0.13173992379969907
-142.44784422809457 -21.26099194847855 0.13153801605776527
-141.9471488178025 -21.207663556332182 0.13133470524607735
-141.44645340751043 -21.15402279300493 0.1311299892099746
-140.94575799721835 -21.100071232524673 0.13092386579479628
-140.44506258692627 -21.0458104489192 0.13071633284588174
-139.94436717663422 -20.991242016216322 0.13050738820857022
-139.44367176634213 -20.936367508443883 0.13029702972820104
-138.94297635605005 -20.881188499629676 0.13008525525011344
-138.442280945758 -20.82570656380152 0.1298720626196468
-137.94158553546592 -20.76992327498724 0.12965744968214027
-137.44089012517384 -20.71384020721469 0.12944141428293326
-136.94019471488178 -20.65745893451167 0.12922395426736505
-136.4394993045897 -20.600781030905967 0.12900506748077487
-135.93880389429762 -20.543808070425417 0.12878475176850201
-135.43810848400557 -20.486541627097868 0.1285630049758858
-134.9374130737135 -20.428983274951083 0.1283398249482655
-134.4367176634214 -20.37113458801294 0.12811520953098043
-133.93602225312935 -20.312997140311257 0.12788915656936986
-133.43532684283727 -20.254572505873814 0.12766166390877304
-132.9346314325452 -20.195862258728457 0.12743272939452932
-132.43393602225314 -20.136867972902994 0.12720235087197798
-131.93324061196105 -20.077591222425244 0.12697052618645827
-131.43254520166897 -20.018033581323014 0.1267372531833095
-130.93184979137692 -19.95819662362418 0.126502529707871
-130.43115438108484 -19.898081923356504 0.12626635360548194
-129.93045897079276 -19.837691054547836 0.12602872272148175
-129.4297635605007 -19.777025591225982 0.12578963490120962
-128.92906815020862 -19.716087107418762 0.12554908799000486
-128.42837273991654 -19.654877177153995 0.12530707983320682
-127.92767732962449 -19.59339737445949 0.12506360827615476
-127.4269819193324 -19.53164927336309 0.12481867116418788
-126.92628650904032 -19.46963444789259 0.12457226634264555
-126.42559109874827 -19.40735447207587 0.12432439165686708
-125.92489568845619 -19.344810919940688 0.12407504495219168
-125.42420027816411 -19.282005365514852 0.12382422407395872
-124.92350486787205 -19.218939382826225 0.12357192686750744
-124.42280945757997 -19.155614545902584 0.12331815117817714
-123.92211404728789 -19.09203242877182 0.12306289485130711
-123.42141863699584 -19.028194605461696 0.12280615573223663
-122.92072322670376 -18.964102650000033 0.12254793166630501
-122.42002781641168 -18.89975813641468 0.12228822049885152
-121.91933240611961 -18.83516263873341 0.12202702007521544
-121.41863699582754 -18.770317730984093 0.12176432824073609
-120.91794158553546 -18.7052249871945 0.12150014284075272
-120.41724617524339 -18.6398859813925 0.12123446172060465
-119.91655076495132 -18.574302287605878 0.12096728272563116
-119.41585535465924 -18.508475479862486 0.12069860370117154
-118.91515994436718 -18.442407132190116 0.12042842249256507
-118.41446453407511 -18.376098818616587 0.12015673694515103
-117.91376912378303 -18.30955211316972 0.11988354490426871
-117.41307371349096 -18.24276858987736 0.11960884421525746
-116.91237830319889 -18.17574982276729 0.11933263272345647
-116.41168289290681 -18.108497385867356 0.11905490827420508
-115.91098748261474 -18.041012853205377 0.11877566871284262
-115.41029207232268 -17.97329779880916 0.1184949118847083
-114.9095966620306 -17.90535379670651 0.11821263563514145
-114.40890125173853 -17.837182420925306 0.11792883780948135
-113.90820584144646 -17.76878524549328 0.11764351625306728
-113.40751043115438 -17.700163844438325 0.11735666881123853
-112.90681502086231 -17.631319791788233 0.11706829332933442
-112.40611961057024 -17.562254661570837 0.1167783876526942
-111.90542420027816 -17.492970027813943 0.11648694962665718
-111.4047287899861 -17.42346746454537 0.11619397709656266
-110.90403337969401 -17.353748545792914 0.1158994679077499
-110.40333796940195 -17.283814845584462 0.11560341990555818
-109.90264255910988 -17.213667937947765 0.11530583093532683
-109.4019471488178 -17.14330939691067 0.11500669884239509
-108.90125173852573 -17.072740796501012 0.1147060214721023
-108.40055632823366 -17.001963710746598 0.11440379666978774
-107.89986091794158 -16.93097971367523 0.11410002228079062
-107.39916550764951 -16.859790379314763 0.11379469615045035
-106.89847009735745 -16.78839728169297 0.11348781612410616
-106.39777468706536 -16.716801994837713 0.1131793800470973
-105.8970792767733 -16.645006092776786 0.1128693857647631
-105.39638386648123 -16.573011149538065 0.11255783112244287
-104.89568845618915 -16.500818739149256 0.11224471396547583
-104.39499304589708 -16.428430435638294 0.11193003213920136
-103.89429763560501 -16.355847813032927 0.1116137834889587
-103.39360222531293 -16.283072445361004 0.1112959658600871
-102.89290681502086 -16.210105906650345 0.11097657709792591
-102.3922114047288 -16.13694977092877 0.11065561504781442
-101.89151599443672 -16.06360561222407 0.11033307755509185
-101.39082058414465 -15.990075004564122 0.11000896246509756
-100.89012517385257 -15.916359521976663 0.10968326762317078
-100.3894297635605 -15.842460738489581 0.10935599087465087
-99.88873435326843 -15.768380228130699 0.10902713006487708
-99.38803894297635 -15.694119564927792 0.10869668303918865
-98.88734353268428 -15.61968032290871 0.10836464764292496
-98.38664812239222 -15.545064076101273 0.10803102172142526
-97.88595271210013 -15.470272398533272 0.10769580312002877
-97.38525730180807 -15.395306864232541 0.10735898968407492
-96.884561891516 -15.320169047226916 0.1070205792589029
-96.38386648122392 -15.244860521544187 0.10668056968985198
-95.88317107093185 -15.169382861212231 0.10633895882226152
-95.38247566063978 -15.093737640258812 0.10599574450147078
-94.8817802503477 -15.017926432711736 0.105650924572819
-94.38108484005564 -14.941950812598893 0.10530449688164556
-93.88038942976357 -14.865812353948034 0.1049564592732897
-93.37969401947149 -14.789512630786977 0.10460680959309067
-92.87899860917942 -14.713053217143628 0.10425554568638784
-92.37830319888734 -14.636435687045736 0.10390266539852046
-91.87760778859527 -14.559661614521136 0.10354816657482778
-91.3769123783032 -14.482732573597648 0.10319204706064915
-90.87621696801112 -14.405650138303063 0.1028343047013238
-90.37552155771905 -14.328415882665272 0.10247493734219106
-89.87482614742699 -14.25103138071201 0.10211394282859024
-89.3741307371349 -14.173498206471155 0.1017513190058606
-88.87343532684284 -14.095817933970512 0.10138706371934139
-88.37273991655077 -14.017992137237886 0.10102117481437198
-87.87204450625869 -13.940022390301113 0.1006536501362916
-87.37134909596662 -13.861910267187984 0.1002844875304395
-86.87065368567455 -13.78365734192639 0.09991368484215507
-86.36995827538247 -13.705265188544065 0.09954123991677755
-85.8692628650904 -13.626735381068872 0.0991671505996462
-85.36856745479834 -13.548069493528647 0.09879141473610037
-84.86787204450626 -13.469269099951195 0.0984140301714793
-84.36717663421419 -13.390335774364278 0.09803499475112228
-83.86648122392211 -13.311271090795803 0.09765430632036863
-83.36578581363004 -13.232076623273574 0.09727196272455764
-82.86509040333797 -13.15275394582537 0.09688796180902852
-82.36439499304589 -13.073304632479026 0.09650230141912068
-81.86369958275382 -12.993730257262346 0.09611497940017334
-81.36300417246176 -12.914032394203193 0.09572599359752572
-80.86230876216968 -12.834212617329317 0.09533534185651726
-80.36161335187761 -12.754272500668694 0.0949430220224872
-79.86091794158554 -12.674213618248917 0.09454903194077469
-79.36022253129346 -12.594037544098004 0.0941533694567192
-78.85952712100139 -12.513745852243634 0.09375603241565994
-78.35883171070932 -12.433340116713683 0.09335701866293619
-77.85813630041724 -12.352821911536015 0.09295632604388726
-77.35744089012518 -12.272192810738407 0.09255395240385247
-76.85674547983311 -12.191454388348664 0.09214989558817102
-76.35605006954103 -12.110608218394606 0.0917441534421823
-75.85535465924896 -12.029655874904112 0.09133672381122553
-75.35465924895689 -11.948598931904915 0.09092760454063996
-74.85396383866481 -11.867438963424863 0.09051679347576501
-74.35326842837274 -11.786177543491863 0.0901042884619399
-73.85257301808066 -11.704816246133579 0.08969008734450383
-73.3518776077886 -11.623356645377985 0.08927418796879623
-72.85118219749653 -11.541800315252761 0.08885658818015635
-72.35048678720445 -11.460148829785854 0.08843728582392339
-71.84979137691238 -11.378403763004986 0.08801627874543677
-71.34909596662031 -11.296566688938018 0.08759356479003572
-70.84840055632823 -11.2146391816128 0.08716914180305946
-70.34770514603616 -11.13262281505708 0.08674300762984741
-69.8470097357441 -11.050519163298734 0.08631516011573875
-69.34631432545201 -10.968329800365527 0.0858855971060728
-68.84561891515995 -10.886056300285393 0.08545431644618892
-68.34492350486788 -10.803700237086023 0.08502131598142633
-67.8442280945758 -10.721263184795252 0.08458659355712422
-67.34353268428373 -10.638746717441027 0.0841501470186221
-66.84283727399166 -10.556152409050998 0.08371197421125913
-66.34214186369958 -10.4734818336531 0.08327207298037455
-65.84144645340751 -10.390736565275095 0.08283044117130776
-65.34075104311543 -10.307918177944845 0.082387076629398
-64.84005563282336 -10.225028245690101 0.08194197719998449
-64.3393602225313 -10.142068342538753 0.08149514072840662
-63.838664812239216 -10.059040042518607 0.08104656506000371
-63.33796940194715 -9.975944919657497 0.08059624804011489
-62.83727399165508 -9.892784547983215 0.08014418751407962
-62.336578581363 -9.809560501523524 0.07969038132723708
-61.83588317107093 -9.72627435430633 0.07923482732492651
-61.335187760778865 -9.642927680359453 0.07877752335248739
-60.834492350486784 -9.559522053710626 0.07831846725525884
-60.333796940194716 -9.476059048387814 0.07785765687858018
-59.83310152990265 -9.392540238418693 0.07739509006779077
-59.33240611961057 -9.30896719783117 0.07693076466822989
-58.8317107093185 -9.225341500653006 0.07646467852523668
-58.33101529902643 -9.141664720912065 0.07599682948415061
-57.83031988873435 -9.057938432636139 0.07552721539031089
-57.329624478442284 -8.974164209853061 0.07505583408905676
-56.82892906815022 -8.890343626590667 0.07458268342572764
-56.328233657858135 -8.806478256876748 0.07410776124566272
-55.82753824756607 -8.722569674739166 0.07363106539420126
-55.326842837273986 -8.63861945420567 0.07315259371668267
-54.82614742698192 -8.554629169304182 0.07267234405844616
-54.32545201668985 -8.470600394062334 0.07219031426483097
-53.82475660639777 -8.386534702508133 0.0717065021811765
-53.3240611961057 -8.302433668669384 0.07122090565282196
-52.823365785813635 -8.218298866573807 0.07073352252510662
-52.322670375521554 -8.134131870249323 0.07024435064336988
-51.82197496522949 -8.049934253723666 0.06975338785295095
-51.321279554937405 -7.965707591024658 0.06926063199918907
-50.82058414464535 -7.881453456180229 0.06876608092742363
-50.31988873435327 -7.79717342321806 0.06826973248299391
-49.81919332406119 -7.712869066166097 0.06777158451123909
-49.318497913769136 -7.628541959052034 0.06727163485749858
-48.817802503477054 -7.544193675903789 0.06676988136711161
-48.31710709318497 -7.459825790749112 0.06626632188541744
-47.81641168289292 -7.375439877615865 0.06576095425775542
-47.31571627260084 -7.291037510531912 0.06525377632946487
-46.81502086230876 -7.206620263524944 0.06474478594588491
-46.3143254520167 -7.122189710622881 0.06423398095235504
-45.81363004172462 -7.037747425853557 0.06372135919421447
-45.31293463143254 -6.953294983244722 0.06320691851680237
-44.81223922114049 -6.86883395682418 0.0626906567654582
-44.311543810848406 -6.7843659206198526 0.0621725717855212
-43.810848400556324 -6.6998924486594875 0.06165266142233054
-43.31015299026427 -6.615415114970948 0.06113092352122569
-42.80945757997219 -6.530935493581983 0.06060735592754583
-42.30876216968011 -6.446455158520455 0.060081956486630214
-41.808066759388026 -6.361975683814227 0.059554723043818245
-41.30737134909597 -6.277498643491019 0.0590256534444492
-40.80667593880389 -6.193025611578723 0.05849474553386223
-40.30598052851181 -6.108558162105173 0.05796199715739668
-39.80528511821976 -6.024097869098147 0.05742740616039203
-39.304589707927676 -5.939646306585478 0.056890970388187315
-38.803894297635594 -5.855205048594972 0.05635268768612191
-38.30319888734354 -5.770775669154465 0.055812555899535196
-37.80250347705146 -5.686359742291761 0.055270572873766285
-37.30180806675938 -5.601958842034695 0.05472673645415459
-36.801112656467325 -5.517574542411102 0.05418104448603943
-36.30041724617524 -5.433208417448786 0.053633494814759916
-35.79972183588316 -5.348862041175498 0.053084085285655516
-35.29902642559111 -5.264536987619214 0.05253281374406556
-34.79833101529903 -5.1802348308075965 0.05197967803532909
-34.297635605006946 -5.095957144768538 0.05142467600478555
-33.79694019471489 -5.011705503529844 0.050867805497774324
-33.29624478442281 -4.927481481119377 0.05030906435963449
-32.79554937413073 -4.843286651564886 0.04974845043570543
-32.294853963838676 -4.75912258889429 0.049185961571326556
-31.794158553546595 -4.674990867135283 0.04862159561183692
-31.293463143254513 -4.590893060315726 0.04805535040257593
-30.79276773296246 -4.506830742463483 0.047487223788882996
-30.29207232267038 -4.422805487606387 0.0469172136160972
-29.791376912378297 -4.338818869772159 0.04634531772955787
-29.290681502086244 -4.254872462988719 0.045771533974604525
-28.789986091794162 -4.170967841283816 0.04519586019657611
-28.28929068150208 -4.0871065786853125 0.044618294240812054
-27.788595271210028 -4.0032902492210996 0.04403883395265186
-27.287899860917946 -3.919520426918784 0.043457477177434436
-26.787204450625865 -3.835798685806343 0.04287422176049928
-26.28650904033381 -3.752126599911638 0.0422890655471858
-25.78581363004173 -3.6685057432623625 0.041702006382833015
-25.28511821974965 -3.5849376898864067 0.041113042112780315
-24.784422809457595 -3.5014240138116053 0.040522170582367165
-24.283727399165514 -3.417966289065679 0.03992938963693256
-23.783031988873432 -3.334566089676575 0.03933469712181596
-23.28233657858135 -3.251224989672015 0.03873809088235665
-22.781641168289298 -3.1679445630798897 0.03813956876389392
-22.280945757997216 -3.0847263839279764 0.037539128611766934
-21.780250347705135 -3.0015720262441095 0.036936768271315215
-21.27955493741308 -2.9184830640561232 0.03633248558787787
-20.778859527121 -2.8354610713917383 0.03572627840679414
-20.27816411682892 -2.7525076222789595 0.03511814457340352
-19.777468706536865 -2.669624290745422 0.03450808193304518
-19.276773296244784 -2.5868126508190743 0.033896088331058324
-18.776077885952702 -2.5040742765276365 0.03328216161278243
-18.27538247566065 -2.4214107418990283 0.032666299623556674
-17.774687065368568 -2.3388236209610556 0.032048500208720285
-17.273991655076486 -2.256314487741439 0.03142876121361267
-16.773296244784433 -2.1738849162680696 0.0308070804835731
-16.27260083449235 -2.0915364805687533 0.030183455863940764
-15.77190542420027 -2.0092707546713813 0.029557885200055076
-15.271210013908217 -1.9270893126036457 0.02893036633725528
-14.770514603616135 -1.8449937283934377 0.02830089712088059
-14.269819193324054 -1.762985576068563 0.027669475396270446
-13.769123783032 -1.6810664296568278 0.02703609900876404
-13.268428372739919 -1.5992378631860946 0.026400765803700557
-12.767732962447838 -1.5175014506841693 0.025763473626419522
-12.267037552155784 -1.4358587661788862 0.02512422032226004
-11.766342141863703 -1.3543113836979659 0.02448300373656144
-11.265646731571621 -1.2728608772693848 0.02383982171466313
