Polar data for a18sm at Re = 214285.7142857143
Alpha (deg) Cl Cd
-180.0 -13.19951701761109 1.8178244794510954
-179.49930458970792 -13.20264652704494 1.813298619184584
-178.99860917941587 -13.205544056232636 1.8087417492022968
-178.49791376912378 -13.208209622938927 1.8041541063646
-177.9972183588317 -13.210643244928573 1.799535927531856
-177.49652294853965 -13.212844939966331 1.79488744956443
-176.99582753824757 -13.214814725816947 1.790208909322686
-176.4951321279555 -13.216552620245189 1.7855005436669893
-175.99443671766343 -13.218058641015812 1.7807625894577022
-175.49374130737135 -13.219332805893568 1.775995283555188
-174.99304589707927 -13.22037513264322 1.7711988628198172
-174.49235048678722 -13.221185639029521 1.7663735641119478
-173.99165507649514 -13.221764342817227 1.7615196242919493
-173.49095966620305 -13.22211126177109 1.7566372802201788
-172.990264255911 -13.222226413655878 1.751726768757006
-172.48956884561892 -13.222109816236337 1.7467883267627966
-171.98887343532684 -13.22176148727723 1.7418221910979097
-171.48817802503476 -13.22118144454332 1.7368285986227148
-170.9874826147427 -13.220369705799346 1.7318077861975725
-170.48678720445062 -13.219326288810073 1.726759990682848
-169.98609179415854 -13.21805121134026 1.721685448938907
-169.4853963838665 -13.216544491154657 1.7165843978261115
-168.9847009735744 -13.214806146018038 1.7114570742048263
-168.48400556328232 -13.212836193695136 1.7063037149354192
-167.98331015299027 -13.21063465195072 1.7011245568782518
-167.4826147426982 -13.208201538549552 1.6959198368936883
-166.9819193324061 -13.205536871256374 1.690689791842092
-166.48122392211405 -13.20264066783595 1.685434658583828
-165.98052851182197 -13.199512946053048 1.6801546739792632
-165.4798331015299 -13.196153723672406 1.6748500748887565
-164.97913769123784 -13.192563018458788 1.6695210981726774
-164.47844228094576 -13.188740848176952 1.6641679806913892
-163.97774687065368 -13.184687230591646 1.6587909593052552
-163.47705146036162 -13.180402183467642 1.653390270874638
-162.97635605006954 -13.175885724569689 1.6479661522599043
-162.47566063977746 -13.171137871662534 1.6425188403214184
-161.9749652294854 -13.166158642510958 1.6370485719195444
-161.47426981919332 -13.160948054879686 1.631555583914644
-160.97357440890124 -13.155506126533496 1.626040113167085
-160.4728789986092 -13.149832875237145 1.6205023965372323
-159.9721835883171 -13.143928318755378 1.6149426708854457
-159.47148817802503 -13.137792474852958 1.609361173072095
-158.97079276773297 -13.13142536129465 1.6037581399575405
-158.4700973574409 -13.12482699584519 1.5981338084021457
-157.9694019471488 -13.117997396269349 1.5924884152662793
-157.46870653685676 -13.110936580331884 1.586822197410301
-156.96801112656468 -13.103644565797545 1.5811353916945803
-156.4673157162726 -13.096121370431092 1.575428234979478
-155.96662030598054 -13.088367011997285 1.5697009641253599
-155.46592489568846 -13.080381508260878 1.563953815992585
-154.96522948539638 -13.07216487698662 1.5581870274415246
-154.46453407510432 -13.063717135939282 1.552400835332542
-153.96383866481224 -13.05503830288361 1.5465954765259988
-153.46314325452016 -13.046128395584365 1.5407711878822619
-152.9624478442281 -13.036987431806295 1.5349282062616927
-152.46175243393603 -13.02761542931417 1.5290667685246555
-151.96105702364395 -13.018012405872742 1.523187111531518
-151.4603616133519 -13.008178379246758 1.517289472142641
-150.9596662030598 -12.998113367200986 1.511374087218394
-150.45897079276773 -12.987817387500186 1.505441193619134
-149.95827538247568 -12.977290457909103 1.4994910282052334
-149.4575799721836 -12.9665325961925 1.493523827837049
-148.9568845618915 -12.955543820115125 1.4875398293749462
-148.45618915159943 -12.944324147441748 1.4815392696792962
-147.95549374130738 -12.932873595937114 1.4755223856104551
-147.4547983310153 -12.921192183365989 1.4694894140287926
-146.95410292072324 -12.909279927493117 1.463440591794672
-146.45340751043116 -12.897136846083274 1.4573761557684557
-145.95271210013908 -12.884762956901191 1.4512963428105061
-145.452016689847 -12.872158277711648 1.4452013897811928
-144.95132127955495 -12.859322826279396 1.4390915335408783
-144.45062586926286 -12.846256620369179 1.4329670109499257
-143.94993045897078 -12.832959677745766 1.4268280588687003
-143.44923504867873 -12.819432016173913 1.4206749141575654
-142.94853963838665 -12.80567365341837 1.414507813676887
-142.44784422809457 -12.791684607243898 1.4083269942870282
-141.9471488178025 -12.77746489541526 1.4021326928483508
-141.44645340751043 -12.763014535697195 1.3959251462212252
-140.94575799721835 -12.748333545854468 1.3897045912660102
-140.44506258692627 -12.733421943651852 1.3834712648430754
-139.94436717663422 -12.718279746854076 1.3772254038127778
-139.44367176634213 -12.702906973225915 1.3709672450354906
-138.94297635605005 -12.687303640532125 1.36469702537157
-138.442280945758 -12.671469766537449 1.3584149816813829
-137.94158553546592 -12.655405369006662 1.3521213508252978
-137.44089012517384 -12.639110465704501 1.3458163696636747
-136.94019471488178 -12.622585074395737 1.3395002750568776
-136.4394993045897 -12.60582921284513 1.3331733038652744
-135.93880389429762 -12.588842898817418 1.3268356929492222
-135.43810848400557 -12.571626150077368 1.3204876791690958
-134.9374130737135 -12.554178984389747 1.3141294993852506
-134.4367176634214 -12.53650141951929 1.3077613904580543
-133.93602225312935 -12.51859347323077 1.301383589247873
-133.43532684283727 -12.500455163288944 1.2949963326150689
-132.9346314325452 -12.482086507458558 1.2885998574200064
-132.43393602225314 -12.46348752350438 1.2821944005230497
-131.93324061196105 -12.444658229191152 1.2757801987845594
-131.43254520166897 -12.425598642283635 1.2693574890649086
-130.93184979137692 -12.406308780546603 1.2629265082244563
-130.43115438108484 -12.386788661744792 1.2564874931235666
-129.93045897079276 -12.367038303642964 1.2500406806226072
-129.4297635605007 -12.347057724005886 1.2435863075819371
-128.92906815020862 -12.326846940598298 1.2371246108619223
-128.42837273991654 -12.306405971184965 1.2306558273229304
-127.92767732962449 -12.285734833530654 1.2241801938253223
-127.4269819193324 -12.264833545400094 1.2176979472294656
-126.92628650904032 -12.243702124558066 1.2112093243957192
-126.42559109874827 -12.222340588769324 1.2047145621844544
-125.92489568845619 -12.200748955798613 1.1982138974560284
-125.42420027816411 -12.178927243410694 1.1917075670708088
-124.92350486787205 -12.156875469370334 1.18519580788916
-124.42280945757997 -12.134593651442273 1.178678856771448
-123.92211404728789 -12.112081807391277 1.1721569505780367
-123.42141863699584 -12.089339954982108 1.165630326169287
-122.92072322670376 -12.06636811197951 1.159099220405565
-122.42002781641168 -12.043166296148247 1.1525638701472365
-121.91933240611961 -12.019734525253078 1.1460245122546622
-121.41863699582754 -11.99607281705875 1.1394813835882134
-120.91794158553546 -11.972181189330033 1.1329347210082472
-120.41724617524339 -11.948059659831664 1.1263847613751314
-119.91655076495132 -11.923708246328417 1.1198317415492285
-119.41585535465924 -11.899126966585051 1.1132758983909061
-118.91515994436718 -11.874315838366304 1.106717468760525
-118.41446453407511 -11.84927487943694 1.1001566895184494
-117.91376912378303 -11.82400410756173 1.093593797525047
-117.41307371349096 -11.798503540505415 1.0870290296406802
-116.91237830319889 -11.772773196032759 1.0804626227257115
-116.41168289290681 -11.74681309190851 1.0738948136405086
-115.91098748261474 -11.720623245897432 1.067325839245436
-115.41029207232268 -11.694203675764285 1.0607559364008503
-114.9095966620306 -11.667554399273815 1.054185341967125
-114.40890125173853 -11.64067543419078 1.0476142928046224
-113.90820584144646 -11.613566798279951 1.0410430257737049
-113.40751043115438 -11.586228509306064 1.0344717777347368
-112.90681502086231 -11.558660585033884 1.027900785548084
-112.40611961057024 -11.53086304322818 1.021330286074109
-111.90542420027816 -11.502835901653693 1.0147605161731759
-111.4047287899861 -11.474579178075189 1.0081917127056543
-110.90403337969401 -11.446092890257411 1.0016241125318996
-110.40333796940195 -11.417377055965126 0.9950579525122831
-109.90264255910988 -11.388431692963092 0.9884934695071654
-109.4019471488178 -11.359256819016064 0.9819309003769126
-108.90125173852573 -11.32985245188879 0.9753704819818905
-108.40055632823366 -11.300218609346047 0.9688124511824616
-107.89986091794158 -11.270355309152567 0.9622570448389867
-107.39916550764951 -11.24026256907312 0.9557044998118369
-106.89847009735745 -11.209940406872466 0.949155052961373
-106.39777468706536 -11.179388840315347 0.9426089411479575
-105.8970792767733 -11.148607887166534 0.9360664012319597
-105.39638386648123 -11.117597565190781 0.9295276700737387
-104.89568845618915 -11.086357892152837 0.9229929845336622
-104.39499304589708 -11.054888885817466 0.9164625814720944
-103.89429763560501 -11.023190563949427 0.9099366977493977
-103.39360222531293 -10.991262944313462 0.9034155702259381
-102.89290681502086 -10.959106044674336 0.8968994357620781
-102.3922114047288 -10.926719882796817 0.8903885312181818
-101.89151599443672 -10.894104476445644 0.8838830934546136
-101.39082058414465 -10.861259843385586 0.8773833593317446
-100.89012517385257 -10.82818600138139 0.8708895657099303
-100.3894297635605 -10.794882968197822 0.8644019494495365
-99.88873435326843 -10.76135076159964 0.8579207474109329
-99.38803894297635 -10.727589399351583 0.8514461964544766
-98.88734353268428 -10.693598899218411 0.8449785334405371
-98.38664812239222 -10.65937927896491 0.8385179952294786
-97.88595271210013 -10.624930556355796 0.8320648186816617
-97.38525730180807 -10.590252749155855 0.8256192406574561
-96.884561891516 -10.555345875129841 0.8191814980172205
-96.38386648122392 -10.520209952042489 0.812751827621321
-95.88317107093185 -10.484844997658573 0.8063304663301236
-95.38247566063978 -10.44925102974285 0.7999176510039943
-94.8817802503477 -10.413428066060067 0.7935136185032883
-94.38108484005564 -10.377376124374987 0.7871186056883841
-93.88038942976357 -10.34109522245237 0.7807328494196317
-93.37969401947149 -10.304585378056952 0.7743565865574007
-92.87899860917942 -10.267846608953523 0.7679900539620605
-92.37830319888734 -10.230878932906823 0.7616334884939737
-91.87760778859527 -10.1936823676816 0.7552871270135009
-91.3769123783032 -10.156256931042616 0.7489512063810062
-90.87621696801112 -10.118602640754641 0.7426259634568539
-90.37552155771905 -10.080719514582416 0.7363116351014172
-89.87482614742699 -10.04260757029071 0.7300084581750477
-89.3741307371349 -10.004266825644262 0.723716669538115
-88.87343532684284 -9.965697298407836 0.7174365060509869
-88.37273991655077 -9.926899006346193 0.7111682045740204
-87.87204450625869 -9.887871967224097 0.7049120019675887
-87.37134909596662 -9.84861619880628 0.6986681350920454
-86.87065368567455 -9.809131718857532 0.6924368408077688
-86.36995827538247 -9.769418545142575 0.6862183559751107
-85.8692628650904 -9.72947669542619 0.6800129174544389
-85.36856745479834 -9.689306187473132 0.673820762106123
-84.86787204450626 -9.648907039048137 0.6676421267905182
-84.36717663421419 -9.608279267915979 0.6614772483679976
-83.86648122392211 -9.56742289184142 0.6553263636989202
-83.36578581363004 -9.526337928589204 0.6491897096436519
-82.86509040333797 -9.48502439592409 0.6430675230625551
-82.36439499304589 -9.44348231161084 0.6369600408159994
-81.86369958275382 -9.401711693414203 0.6308674997643438
-81.36300417246176 -9.359712559098934 0.6247901367679523
-80.86230876216968 -9.317484926429803 0.6187281886871927
-80.36161335187761 -9.275028813171556 0.6126818923824311
-79.86091794158554 -9.232344237088949 0.6066514847140227
-79.36022253129346 -9.189431215946751 0.600637202542339
-78.85952712100139 -9.14628976750971 0.5946392827277476
-78.35883171070932 -9.102919909542567 0.5886579621306038
-77.85813630041724 -9.059321659810099 0.5826934776112809
-77.35744089012518 -9.015495036077066 0.5767460660301376
-76.85674547983311 -8.971440056108197 0.5708159642475346
-76.35605006954103 -8.92715673766828 0.5649034091238467
-75.85535465924896 -8.882645098522058 0.5590086375194259
-75.35465924895689 -8.837905156434285 0.5531318862946504
-74.85396383866481 -8.792936929169723 0.547273392309872
-74.35326842837274 -8.747740434493135 0.5414333924254657
-73.85257301808066 -8.702315690169247 0.5356121235017814
-73.3518776077886 -8.656662713962856 0.5298098223992047
-72.85118219749653 -8.610781523638703 0.5240267259780749
-72.35048678720445 -8.56467213696153 0.5182630710987757
-71.84979137691238 -8.518334571696105 0.5125190946216607
-71.34909596662031 -8.471768845607198 0.506795033407103
-70.84840055632823 -8.424974976459534 0.5010911243154597
-70.34770514603616 -8.377952982017899 0.49540760420710034
-69.8470097357441 -8.330702880047038 0.4897447099423838
-69.34631432545201 -8.283224688311702 0.48410267838167426
-68.84561891515995 -8.235518424576664 0.4784817463853413
-68.34492350486788 -8.187584106606668 0.47288215081374735
-67.8442280945758 -8.139421752166466 0.4673041285272566
-67.34353268428373 -8.091031379020837 0.4617479163862351
-66.84283727399166 -8.042413004934506 0.45621375125103986
-66.34214186369958 -7.99356664767225 0.45070186998204226
-65.84144645340751 -7.94449232499883 0.4452125094396065
-65.34075104311543 -7.895190054678981 0.4397459064840897
-64.84005563282336 -7.8456598544774785 0.43430229797586667
-64.3393602225313 -7.795901742159071 0.4288819207752946
-63.838664812239216 -7.745915735488513 0.4234850117427394
-63.33796940194715 -7.695701852230574 0.41811180773857065
-62.83727399165508 -7.6452601101500015 0.41276254562314013
-62.336578581363 -7.594590527011551 0.4074374622568209
-61.83588317107093 -7.54369312057997 0.40213679449997725
-61.335187760778865 -7.4925679086200425 0.39686077921297686
-60.834492350486784 -7.441214908896487 0.3916096532561733
-60.333796940194716 -7.389634139174095 0.38638365348994147
-59.83310152990265 -7.337825617217614 0.38118301677463845
-59.33240611961057 -7.285789360791792 0.37600797997063556
-58.8317107093185 -7.233525387661377 0.37085877993828814
-58.33101529902643 -7.181033715591152 0.3657356535379657
-57.83031988873435 -7.128314362345865 0.3606388376300343
-57.329624478442284 -7.075367345690257 0.35556856907485807
-56.82892906815022 -7.02219268338909 0.35052508473279415
-56.328233657858135 -6.96879039320714 0.3455086214642192
-55.82753824756607 -6.915160492909134 0.34051941612948494
-55.326842837273986 -6.861303000259856 0.335557705588961
-54.82614742698192 -6.807217933024045 0.3306237267030168
-54.32545201668985 -6.752905308966451 0.3257177163320078
-53.82475660639777 -6.698365145851856 0.32083991133630346
-53.3240611961057 -6.643597461445008 0.31599054857626446
-52.823365785813635 -6.588602273510649 0.31116986491225856
-52.322670375521554 -6.533379599813539 0.3063780972046553
-51.82197496522949 -6.4779294581184566 0.30161548231380647
-51.321279554937405 -6.42225186619012 0.29688225710008337
-50.82058414464535 -6.366346841793327 0.29217865842384844
-50.31988873435327 -6.310214402692811 0.28750492314546944
-49.81919332406119 -6.2538545666533345 0.2828612881253106
-49.318497913769136 -6.1972673514396455 0.27824799022373253
-48.817802503477054 -6.14045277481652 0.2736652663011013
-48.31710709318497 -6.083410854548685 0.2691133532177739
-47.81641168289292 -6.026141608400923 0.26459248783413064
-47.31571627260084 -5.9686450541379905 0.2601029070105268
-46.81502086230876 -5.91092120952462 0.25564484760732303
-46.3143254520167 -5.852970092325588 0.2512185464848871
-45.81363004172462 -5.794791720305657 0.24682424050358504
-45.31293463143254 -5.736386111229567 0.24246216652378455
-44.81223922114049 -5.677753282862074 0.23813256140583566
-44.311543810848406 -5.618893252967954 0.23383566201012035
-43.810848400556324 -5.559806039311933 0.22957170519699216
-43.31015299026427 -5.5004916596588025 0.22534092782682064
-42.80945757997219 -5.440950131773288 0.2211435667599611
-42.30876216968011 -5.381181473420167 0.21697985885678667
-41.808066759388026 -5.321185702364186 0.21285004097766153
-41.30737134909597 -5.2609628363701155 0.20875434998294456
-40.80667593880389 -5.2005128932026885 0.2046930227330071
-40.30598052851181 -5.139835890626674 0.20066629608820624
-39.80528511821976 -5.078931846406849 0.1966744069089133
-39.304589707927676 -5.017800778307933 0.1927175920554854
-38.803894297635594 -4.956442704094695 0.18879608838829381
-38.30319888734354 -4.894857641531917 0.18491013276769924
-37.80250347705146 -4.833045608384321 0.1810599620540641
-37.30180806675938 -4.771006622416667 0.17724581310775261
-36.801112656467325 -4.708740701393754 0.1734679227891361
-36.30041724617524 -4.64624786308028 0.16972652795857518
-35.79972183588316 -4.5835281252410205 0.166021865476427
-35.29902642559111 -4.5205815056407666 0.16235417220306642
-34.79833101529903 -4.4574080220442305 0.15872368499884876
-34.297635605006946 -4.394007692216196 0.1551306407241489
-33.79694019471489 -4.330380533921403 0.15157527623932215
-33.29624478442281 -4.266526564924622 0.14805782840473453
-32.79554937413073 -4.202445802990592 0.144578534080752
-32.294853963838676 -4.138138265884091 0.14113763012774055
-31.794158553546595 -4.073603971369852 0.13773535340606086
-31.293463143254513 -4.008842937212652 0.1343719407760789
-30.79276773296246 -3.9438551811772524 0.13104762909815887
-30.29207232267038 -3.8786407210283795 0.12776265523267033
-29.791376912378297 -3.813199574530803 0.1245172560399615
-29.290681502086244 -3.747531759449306 0.1213116683804179
-28.789986091794162 -3.6816372935486084 0.11814612911438599
-28.28929068150208 -3.615516194593486 0.11502087510224063
-27.788595271210028 -3.5491684803486945 0.1119361432043478
-27.287899860917946 -3.482594168578981 0.10889217028106107
-26.787204450625865 -3.4157932770491013 0.10588919319274998
-26.28650904033381 -3.3487658235238453 0.10292744879978583
-25.78581363004173 -3.2815118257679186 0.10000717396252395
-25.28511821974965 -3.2140313015461044 0.09712860554132857
-24.784422809457595 -3.146324268623179 0.09429198039657455
-24.283727399165514 -3.078390744763841 0.09149753538860833
-23.783031988873432 -3.010230747732909 0.0887455073778119
-23.28233657858135 -2.9418442952951165 0.08603613322454057
-22.781641168289298 -2.8732314052151975 0.08336964978915679
-22.280945757997216 -2.8043920952579353 0.08074629393203187
-21.780250347705135 -2.735326383188092 0.07816630251352291
-21.27955493741308 -2.6660342867704085 0.07562991239400302
-20.778859527121 -2.5965158237696255 0.07313736043382574
-20.27816411682892 -2.5267710119505407 0.07068888349336949
-19.777468706536865 -2.4567998690778734 0.0682847184329825
-19.276773296244784 -2.386602412916407 0.06592510211303787
-18.776077885952702 -2.316178661230883 0.06361027139389802
-18.27538247566065 -2.245528631786055 0.06134046313593072
-17.774687065368568 -2.174652342346701 0.05911591419949841
-17.273991655076486 -2.103549810677553 0.05693686144496174
-16.773296244784433 -2.0322210545433745 0.05480354173269025
-16.27260083449235 -1.960666091708927 0.05271619192304283
-15.77190542420027 -1.8888849399389724 0.050675048876390794
-15.271210013908217 -1.816877616998252 0.04868034945309302
-14.770514603616135 -1.7446441406515274 0.046732330513515496
-14.269819193324054 -1.6721845286635753 0.04483122891802244
-13.769123783032 -1.599498798799122 0.0429772815269745
-13.268428372739919 -1.5265869688229299 0.04117072520074122
-12.767732962447838 -1.453449056499775 0.03941179679968859
-12.267037552155784 -1.3800850795943984 0.03770073318417372
-11.766342141863703 -1.306495055871555 0.036037771214567915
-11.265646731571621 -1.2326790030960066 0.034423147751230065
-10.764951321279568 -1.1586369390325229 0.032857099654526156
-10.264255910987487 -1.0843688814458372 0.031339863784822175
-9.763560500695405 -1.0098748481007118 0.02987167700248411
-9.262865090403352 -0.9351548567619159 0.028452776167869065
-8.76216968011127 -0.8602089251941902 0.027083398141348358
