Polar data for 2 at Re = 185714.28571428574
Alpha (deg) Cl Cd
-180.0 -7.1347338435815715 1.1059099408962452
-179.49930458970792 -7.1549440565299705 1.1032467022164905
-178.99860917941587 -7.175027377434478 1.1005651519401403
-178.49791376912378 -7.194982934619718 1.0978654260237926
-177.9972183588317 -7.214809856410314 1.095147660424044
-177.49652294853965 -7.234507271130889 1.0924119910974939
-176.99582753824757 -7.254074307106073 1.0896585540007366
-176.4951321279555 -7.273510092660485 1.086887485090372
-175.99443671766343 -7.2928137561187505 1.0840989203229963
-175.49374130737135 -7.311984425805493 1.0812929956552073
-174.99304589707927 -7.3310212300453355 1.0784698470436032
-174.49235048678722 -7.349923297162908 1.07562961044478
-173.99165507649514 -7.368689755482826 1.0727724218153358
-173.49095966620305 -7.387319733329724 1.0698984171118677
-172.990264255911 -7.40581235902822 1.0670077322909715
-172.48956884561892 -7.424166760902937 1.064100503309249
-171.98887343532684 -7.442382067278501 1.0611768661232939
-171.48817802503476 -7.460457406479536 1.058236956689704
-170.9874826147427 -7.478391906830668 1.055280910965078
-170.48678720445062 -7.49618469665652 1.0523088649060115
-169.98609179415854 -7.513834904281715 1.0493209544691051
-169.4853963838665 -7.531341658030879 1.0463173156109506
-168.9847009735744 -7.548704086228637 1.0432980842881514
-168.48400556328232 -7.565921317199608 1.0402633964573027
-167.98331015299027 -7.582992479268421 1.0372133880750007
-167.4826147426982 -7.5999167007596995 1.0341481950978426
-166.9819193324061 -7.616693109998069 1.031067953482429
-166.48122392211405 -7.633320835308149 1.0279727991853538
-165.98052851182197 -7.64979900501457 1.0248628681632173
-165.4798331015299 -7.66612674744195 1.0217382963726125
-164.97913769123784 -7.682303190914919 1.0185992197701415
-164.47844228094576 -7.698327463758096 1.015445774312399
-163.97774687065368 -7.71419869429611 1.0122780959559823
-163.47705146036162 -7.7299160108535805 1.009096320657491
-162.97635605006954 -7.745478541755135 1.005900584373521
-162.47566063977746 -7.760885415325395 1.002691023060671
-161.9749652294854 -7.776135759888989 0.999467772675535
-161.47426981919332 -7.791228703770541 0.9962309691747133
-160.97357440890124 -7.806163375294668 0.992980748514803
-160.4728789986092 -7.820938902786001 0.9897172466524011
-159.9721835883171 -7.835554414569161 0.9864405995441043
-159.47148817802503 -7.850009038968777 0.9831509431465115
-158.97079276773297 -7.864301904309462 0.9798484134162198
-158.4700973574409 -7.878432138915855 0.9765331463098248
-157.9694019471488 -7.892398871112572 0.9732052777839264
-157.46870653685676 -7.906201229224239 0.9698649437951194
-156.96801112656468 -7.919838341575478 0.9665122803000041
-156.4673157162726 -7.933309336490915 0.9631474232551749
-155.96662030598054 -7.946613342295173 0.9597705086172315
-155.46592489568846 -7.9597494873128785 0.95638167234277
-154.96522948539638 -7.972716899868656 0.9529810503883895
-154.46453407510432 -7.985514708287123 0.9495687787106843
-153.96383866481224 -7.998142040892914 0.9461449932662542
-153.46314325452016 -8.010598026010646 0.9427098300116972
-152.9624478442281 -8.022881791964942 0.9392634249036085
-152.46175243393603 -8.034992467080437 0.9358059138985853
-151.96105702364395 -8.046929179681742 0.9323374329532272
-151.4603616133519 -8.058691058093492 0.9288581180241315
-150.9596662030598 -8.070277230640302 0.9253681050678935
-150.45897079276773 -8.081686825646798 0.9218675300411128
-149.95827538247568 -8.09291897143761 0.9183565289003857
-149.4575799721836 -8.103972796337358 0.9148352376023083
-148.9568845618915 -8.11484742867067 0.9113037921034788
-148.45618915159943 -8.125541996762163 0.9077623283604985
-147.95549374130738 -8.136055628936466 0.9042109823299584
-147.4547983310153 -8.146387453518203 0.900649889968461
-146.95410292072324 -8.156536598832 0.8970791872325996
-146.45340751043116 -8.166502193202474 0.8934990100789759
-145.95271210013908 -8.176283364954262 0.8899094944641817
-145.452016689847 -8.185879242411973 0.8863107763448193
-144.95132127955495 -8.195288953900244 0.8827029916774858
-144.45062586926286 -8.20451162774369 0.8790862764187748
-143.94993045897078 -8.213546392266947 0.8754607665252878
-143.44923504867873 -8.222392375794625 0.8718265979536193
-142.94853963838665 -8.231048706651348 0.8681839066603707
-142.44784422809457 -8.239514513161756 0.8645328286021348
-141.9471488178025 -8.247788923650463 0.8608734997355103
-141.44645340751043 -8.255871066442095 0.8572060560170953
-140.94575799721835 -8.26376006986127 0.8535306334034869
-140.44506258692627 -8.27145506223262 0.8498473678512839
-139.94436717663422 -8.278955171880773 0.8461563953170808
-139.44367176634213 -8.286259527130335 0.842457851757479
-138.94297635605005 -8.29336725630595 0.8387518731290713
-138.442280945758 -8.300277487732236 0.8350385953884574
-137.94158553546592 -8.306989349733813 0.8313181544922352
-137.44089012517384 -8.313501970635306 0.8275906863970011
-136.94019471488178 -8.319814478761343 0.8238563270593529
-136.4394993045897 -8.325926002436544 0.8201152124358895
-135.93880389429762 -8.331835669985539 0.8163674784832036
-135.43810848400557 -8.337542609732946 0.8126132611578984
-134.9374130737135 -8.343045950003395 0.8088526964165677
-134.4367176634214 -8.348344819121506 0.8050859202158083
-133.93602225312935 -8.353438345411904 0.801313068512221
-133.43532684283727 -8.358325657199215 0.797534277262401
-132.9346314325452 -8.363005882808059 0.7937496824229464
-132.43393602225314 -8.367478150563064 0.7899594199504534
-131.93324061196105 -8.371741588788852 0.7861636258015199
-131.43254520166897 -8.375795325810051 0.782362435932743
-130.93184979137692 -8.37963848995128 0.7785559863007234
-130.43115438108484 -8.383270209537171 0.7747444128620529
-129.93045897079276 -8.386689612892335 0.7709278515733338
-129.4297635605007 -8.38989582834141 0.7671064383911597
-128.92906815020862 -8.392887984209015 0.7632803092721303
-128.42837273991654 -8.395665208819771 0.7594496001728437
-127.92767732962449 -8.398226630498307 0.7556144470498951
-127.4269819193324 -8.400571377569245 0.7517749858598826
-126.92628650904032 -8.40269857835721 0.7479313525594022
-126.42559109874827 -8.404607361186818 0.7440836831050557
-125.92489568845619 -8.40629685438271 0.7402321134534364
-125.42420027816411 -8.407766186269496 0.7363767795611424
-124.92350486787205 -8.409014485171811 0.7325178173847726
-124.42280945757997 -8.41004087941427 0.7286553628809231
-123.92211404728789 -8.410844497321495 0.7247895520061929
-123.42141863699584 -8.411424467218124 0.7209205207171772
-122.92072322670376 -8.411779917428765 0.7170484049704731
-122.42002781641168 -8.411909976278059 0.7131733407226795
-121.91933240611961 -8.411813772090616 0.7092954639303952
-121.41863699582754 -8.41149043319107 0.7054149105502139
-120.91794158553546 -8.410939087904039 0.7015318165387361
-120.41724617524339 -8.41015886455415 0.697646317852558
-119.91655076495132 -8.409148891466023 0.6937585504482777
-119.41585535465924 -8.407908296964287 0.6898686502824904
-118.91515994436718 -8.406436209373563 0.6859767533117969
-118.41446453407511 -8.404731757018478 0.6820829954927905
-117.91376912378303 -8.402794068223658 0.6781875127820738
-117.41307371349096 -8.400622271313724 0.6742904411362385
-116.91237830319889 -8.398215494613298 0.670391916511887
-116.41168289290681 -8.395572866447006 0.666492074865612
-115.91098748261474 -8.392693515139479 0.6625910521540159
-115.41029207232268 -8.389576569015324 0.6586889843336932
-114.9095966620306 -8.38622115639919 0.6547860073612399
-114.40890125173853 -8.38262640561568 0.650882257193256
-113.90820584144646 -8.378791444989425 0.6469778697863366
-113.40751043115438 -8.374715402845057 0.6430729810970817
-112.90681502086231 -8.370397407507186 0.6391677270820881
-112.40611961057024 -8.365836587300445 0.6352622436979514
-111.90542420027816 -8.361032070549458 0.631356666901272
-111.4047287899861 -8.355982985578846 0.6274511326486445
-110.90403337969401 -8.350688460713235 0.6235457768966659
-110.40333796940195 -8.345147624277255 0.6196407356019369
-109.90264255910988 -8.33935960459552 0.6157361447210519
-109.4019471488178 -8.333323529992658 0.6118321402106088
-108.90125173852573 -8.327038528793299 0.6079288580272058
-108.40055632823366 -8.320503729322056 0.6040264341274397
-107.89986091794158 -8.313718259903569 0.6001250044679096
-107.39916550764951 -8.306681248862441 0.5962247050052116
-106.89847009735745 -8.299391824523314 0.592325671695942
-106.39777468706536 -8.291849115210807 0.5884280404966968
-105.8970792767733 -8.28405224924954 0.5845319473640795
-105.39638386648123 -8.276000354964141 0.5806375282546836
-104.89568845618915 -8.26769256067924 0.5767449191251053
-104.39499304589708 -8.259127994719446 0.5728542559319425
-103.89429763560501 -8.250305785409395 0.5689656746317959
-103.39360222531293 -8.241225061073704 0.5650793111812591
-102.89290681502086 -8.231884950037012 0.5611953015369309
-102.3922114047288 -8.222284580623926 0.5573137816554075
-101.89151599443672 -8.212423081159082 0.5534348874932868
-101.39082058414465 -8.202299579967088 0.5495587550071714
-100.89012517385257 -8.191913205372593 0.5456855201536495
-100.3894297635605 -8.181263085700202 0.5418153188893242
-99.88873435326843 -8.170348349274544 0.5379482871707937
-99.38803894297635 -8.159168124420242 0.5340845609546505
-98.88734353268428 -8.147721539461928 0.5302242761974962
-98.38664812239222 -8.136007722724218 0.5263675688559288
-97.88595271210013 -8.124025802531735 0.522514574886541
-97.38525730180807 -8.111774907209108 0.5186654302459359
-96.884561891516 -8.099254165080962 0.5148202708907064
-96.38386648122392 -8.086462704471922 0.5109792327774494
-95.88317107093185 -8.073399653706604 0.5071424518627692
-95.38247566063978 -8.06006414110964 0.5033100641032549
-94.8817802503477 -8.046455295005654 0.4994822054555079
-94.38108484005564 -8.032572243719265 0.4956590118761255
-93.88038942976357 -8.018414115575101 0.49184061932170464
-93.37969401947149 -8.003980038897792 0.4880271637488416
-92.87899860917942 -7.989269142011951 0.48421878111413696
-92.37830319888734 -7.974280553242208 0.48041560737418343
-91.87760778859527 -7.959013400913184 0.4766177784855834
-91.3769123783032 -7.943466813349504 0.4728254304049322
-90.87621696801112 -7.927639918875796 0.469038699088826
-90.37552155771905 -7.911531845816679 0.4652577204938628
-89.87482614742699 -7.895141722496785 0.46148263057664063
-89.3741307371349 -7.878468677240733 0.4577135652937556
-88.87343532684284 -7.861511838373145 0.45395066060180844
-88.37273991655077 -7.844270334218647 0.45019405245739263
-87.87204450625869 -7.826743293101869 0.44644387681710707
-87.37134909596662 -7.80892984334743 0.44270026963754705
-86.87065368567455 -7.790829113279946 0.4389633668753168
-86.36995827538247 -7.772440231224062 0.4352333044870045
-85.8692628650904 -7.753762325504379 0.43151021842921433
-85.36856745479834 -7.734794524445537 0.42779424465854254
-84.86787204450626 -7.715535956372154 0.42408551913158266
-84.36717663421419 -7.6959857496088535 0.4203841778049362
-83.86648122392211 -7.67614303248026 0.41669035663520115
-83.36578581363004 -7.656006933311007 0.41300419157897017
-82.86509040333797 -7.635576580425704 0.4093258185928448
-82.36439499304589 -7.614851102148981 0.4056553736334203
-81.86369958275382 -7.593829626805471 0.4019929926572947
-81.36300417246176 -7.572511282719786 0.398338811621066
-80.86230876216968 -7.55089519821656 0.39469296648132945
-80.36161335187761 -7.528980501620408 0.39105559319468575
-79.86091794158554 -7.506766321255958 0.3874268277177302
-79.36022253129346 -7.484251785447837 0.38380680600706163
-78.85952712100139 -7.461436022520667 0.3801956640192745
-78.35883171070932 -7.438318160799069 0.3765935377109677
-77.85813630041724 -7.414897328607674 0.3730005630387392
-77.35744089012518 -7.391172654271093 0.3694168759591905
-76.85674547983311 -7.367143266113969 0.3658426124289089
-76.35605006954103 -7.342808292460914 0.36227790840450136
-75.85535465924896 -7.318166861636561 0.35872289984256045
-75.35465924895689 -7.293218101965518 0.3551777226996842
-74.85396383866481 -7.267961141772428 0.3516425129324705
-74.35326842837274 -7.242395109381899 0.3481174064975201
-73.85257301808066 -7.2165191331185685 0.34460253935142027
-73.3518776077886 -7.19033234130705 0.3410980474507814
-72.85118219749653 -7.16383386227198 0.3376040667521909
-72.35048678720445 -7.13702282433797 0.3341207332122502
-71.84979137691238 -7.109898355829655 0.3306481827875565
-71.34909596662031 -7.082459585071652 0.32718655143470676
-70.84840055632823 -7.05470564038858 0.3237359751103017
-70.34770514603616 -7.026635650105074 0.3202965897709331
-69.8470097357441 -6.998248742545766 0.3168685313731998
-69.34631432545201 -6.969544046035255 0.31345193587370246
-68.84561891515995 -6.940520688898184 0.31004693922903637
-68.34492350486788 -6.911177799459169 0.30665367739579685
-67.8442280945758 -6.881514506042842 0.30327228633058456
-67.34353268428373 -6.8515299369738205 0.2999029019899966
-66.84283727399166 -6.821223220576732 0.29654566033062824
-66.34214186369958 -6.790593485176199 0.2932006973090784
-65.84144645340751 -6.759639859096847 0.2898681488819441
-65.34075104311543 -6.728361470663298 0.28654815100582076
-64.84005563282336 -6.696757448200183 0.28324083963730806
-64.3393602225313 -6.664826920032114 0.2799463507330049
-63.838664812239216 -6.63256901448373 0.27666482024950656
-63.33796940194715 -6.599982859879633 0.27339638414341194
-62.83727399165508 -6.56706758454448 0.27014117837131457
-62.336578581363 -6.533822316802867 0.2668993388898169
-61.83588317107093 -6.500246184979426 0.2636710016555106
-61.335187760778865 -6.466338317398781 0.26045630262500086
-60.834492350486784 -6.432097842385573 0.25725537775487584
-60.333796940194716 -6.3975238882643914 0.2540683630017415
-59.83310152990265 -6.362615583359894 0.25089539432219055
-59.33240611961057 -6.32737205599669 0.2477366076728209
-58.8317107093185 -6.291792434499408 0.2445921390102297
-58.33101529902643 -6.255875847192668 0.241462124291014
-57.83031988873435 -6.219621422401092 0.23834669947177356
-57.329624478442284 -6.183028288449303 0.23524600050910371
-56.82892906815022 -6.146095573661948 0.23216016335960243
-56.328233657858135 -6.108822406363617 0.22908932397986947
-55.82753824756607 -6.071207914878951 0.2260336183264975
-55.326842837273986 -6.033251227532585 0.22299318235608712
-54.82614742698192 -5.994951472649124 0.21996815202523634
-54.32545201668985 -5.9563077785532 0.21695866329053692
-53.82475660639777 -5.917319273569437 0.21396485210859395
-53.3240611961057 -5.87798508602246 0.21098685443599918
-52.823365785813635 -5.838304344236894 0.20802480622935327
-52.322670375521554 -5.798276176537369 0.20507884344525418
-51.82197496522949 -5.757899711248497 0.20214910204029457
-51.321279554937405 -5.717174076694903 0.1992357179710751
-50.82058414464535 -5.676098401201223 0.1963388271941946
-50.31988873435327 -5.634671813092076 0.1934585656662493
-49.81919332406119 -5.592893440692067 0.1905950693438354
-49.318497913769136 -5.550762412325846 0.1877484741835509
-48.817802503477054 -5.508277856318032 0.18491891614199196
-48.31710709318497 -5.4654389009932505 0.18210653117575837
-47.81641168289292 -5.422244674676117 0.17931145524144632
-47.31571627260084 -5.378694305691264 0.17653382429565379
-46.81502086230876 -5.334786922363295 0.1737737742949761
-46.3143254520167 -5.290521653016863 0.171031441196013
-45.81363004172462 -5.2458976259765775 0.16830696095536424
-45.31293463143254 -5.2009139695670585 0.1656004695296216
-44.81223922114049 -5.155569812112955 0.16291210287538305
-44.311543810848406 -5.109864281938859 0.1602419969492519
-43.810848400556324 -5.063796507369409 0.15759028770781813
-43.31015299026427 -5.0173656167292275 0.15495711110768595
-42.80945757997219 -4.970570738342955 0.15234260310544356
-42.30876216968011 -4.923411000535181 0.1497468996577005
-41.808066759388026 -4.8758855316305585 0.14717013672104318
-41.30737134909597 -4.827993459953709 0.1446124502520767
-40.80667593880389 -4.77973391382924 0.14207397620739282
-40.30598052851181 -4.731106021581781 0.13955485054359307
-39.80528511821976 -4.682108911535984 0.13705520921727365
-39.304589707927676 -4.632741712016434 0.13457518818503078
-38.803894297635594 -4.583003551347768 0.1321149234034633
-38.30319888734354 -4.532893557854629 0.12967455082916746
-37.80250347705146 -4.482410859861619 0.12725420641874297
-37.30180806675938 -4.431554585693359 0.12485402612878072
-36.801112656467325 -4.3803238636745006 0.12247414591588668
-36.30041724617524 -4.3287178221296365 0.1201147017366535
-35.79972183588316 -4.276735589383418 0.1177758295476774
-35.29902642559111 -4.224376293760454 0.11545766530555901
-34.79833101529903 -4.1716390635853715 0.11316034496689631
-34.297635605006946 -4.118523027182787 0.11088400448828373
-33.79694019471489 -4.065027312877352 0.10862877982632013
-33.29624478442281 -4.011151048993652 0.10639480693759906
-32.79554937413073 -3.95689336385633 0.10418222177872649
-32.294853963838676 -3.902253385790017 0.1019911603062924
-31.794158553546595 -3.847230243119326 0.09982175847689567
-31.293463143254513 -3.791823064168889 0.09767415224713694
-30.79276773296246 -3.73603097726334 0.09554847757360974
-30.29207232267038 -3.679853110727266 0.09344487041291649
-29.791376912378297 -3.6232885928853324 0.09136346672164186
-29.290681502086244 -3.566336552062155 0.0893044024564007
-28.789986091794162 -3.508996116582333 0.08726781357377766
-28.28929068150208 -3.4512664147705037 0.08525383603037695
-27.788595271210028 -3.393146574951304 0.08326260578279387
-27.287899860917946 -3.334635725449348 0.08129425878762375
-26.787204450625865 -3.2757329945892586 0.07934893100146723
-26.28650904033381 -3.2164375106956653 0.07742675838092139
-25.78581363004173 -3.1567484020931893 0.07552787688257978
-25.28511821974965 -3.096664797106447 0.07365242246304304
-24.784422809457595 -3.0361858240600803 0.07180053107891005
-24.283727399165514 -2.975310611278706 0.06997233868677255
-23.783031988873432 -2.914038287086931 0.06816798124323475
-23.28233657858135 -2.852367979809414 0.0663875947048902
-22.781641168289298 -2.7902988177707533 0.06463131502833241
-22.280945757997216 -2.7278299292955595 0.06289927817017094
-21.780250347705135 -2.664960442708505 0.06119162008699042
-21.27955493741308 -2.6016894863341733 0.05950847673539683
-20.778859527121 -2.5380161884971963 0.05784998407197839
-20.27816411682892 -2.4739396775222113 0.056216278053344615
-19.777468706536865 -2.4094590817338437 0.054607494636081944
-19.276773296244784 -2.3445735294566834 0.05302376977679457
-18.776077885952702 -2.279282149015396 0.05146523943207426
-18.27538247566065 -2.213584068734585 0.049932039558526986
-17.774687065368568 -2.1474784169388776 0.04842430611274273
-17.273991655076486 -2.0809643219529015 0.04694217505132037
-16.773296244784433 -2.014040912101283 0.04548578233085876
-16.27260083449235 -1.9467073157086332 0.044055263907953224
-15.77190542420027 -1.8789626610995824 0.04265075573920618
-15.271210013908217 -1.810806076598763 0.04127239378120762
-14.770514603616135 -1.7422366905308004 0.039920313990558176
-14.269819193324054 -1.6732536312202961 0.0385946523238585
-13.769123783032 -1.603856026991904 0.037295544737702135
-13.268428372739919 -1.5340430061702282 0.03602312718868439
-12.767732962447838 -1.4638136970798985 0.03477753563340946
-12.267037552155784 -1.3931672280455476 0.03355890602847089
-11.766342141863703 -1.3221027273917876 0.03236737433046577
-11.265646731571621 -1.2506193234432466 0.03120307649599119
-10.764951321279568 -1.1787161445245509 0.030066148481647792
-10.264255910987487 -1.1063923189603189 0.028956726244027342
-9.763560500695405 -1.0336469750751804 0.027874945739728707
-9.262865090403352 -0.960479241193761 0.02682094292535253
-8.76216968011127 -0.886888245640679 0.025794853757497682
-8.261474269819189 -0.8128731167405643 0.024796814192755923
-7.760778859527136 -0.7384329828180494 0.023826960187722568
