Polar data for a18sm at Re = 140000.0
Alpha (deg) Cl Cd
-180.0 -11.019866082986796 1.283739540123844
-179.49930458970792 -11.033353839551943 1.2806092425517517
-178.99860917941587 -11.046650451839652 1.2774574575715207
-178.49791376912378 -11.05975540182334 1.2742843468335177
-177.9972183588317 -11.072668171476408 1.2710900719881062
-177.49652294853965 -11.085388242772277 1.2678747946856528
-176.99582753824757 -11.097915097684348 1.264638676576522
-176.4951321279555 -11.110248218186038 1.2613818793110805
-175.99443671766343 -11.12238708625076 1.258104564539693
-175.49374130737135 -11.134331183851916 1.2548068939127242
-174.99304589707927 -11.146079992962923 1.251489029080544
-174.49235048678722 -11.157632995557192 1.2481511316935117
-173.99165507649514 -11.168989673608129 1.2447933634019956
-173.49095966620305 -11.180149509089146 1.241415885856361
-172.990264255911 -11.19111198397366 1.238018860706973
-172.48956884561892 -11.201876580235073 1.2346024496041994
-171.98887343532684 -11.212442779846802 1.2311668141984033
-171.48817802503476 -11.222810064782253 1.22771211613995
-170.9874826147427 -11.232977917014837 1.224238517079208
-170.48678720445062 -11.242945818517969 1.2207461786665381
-169.98609179415854 -11.252713251265055 1.2172352625523088
-169.4853963838665 -11.262279697229507 1.2137059303868845
-168.9847009735744 -11.27164463838474 1.2101583438206327
-168.48400556328232 -11.28080755670416 1.206592664503916
-167.98331015299027 -11.289767934161178 1.2030090540871021
-167.4826147426982 -11.298525252729203 1.1994076742205544
-166.9819193324061 -11.30707899438165 1.1957886865546414
-166.48122392211405 -11.315428641091925 1.1921522527397248
-165.98052851182197 -11.323573674833446 1.188498534426174
-165.4798331015299 -11.331513577579612 1.1848276932643507
-164.97913769123784 -11.339247831303847 1.1811398909046225
-164.47844228094576 -11.346775917979551 1.1774352889973563
-163.97774687065368 -11.354097319580141 1.1737140491929146
-163.47705146036162 -11.361211518079026 1.1699763331416633
-162.97635605006954 -11.368117995449614 1.1662223024939702
-162.47566063977746 -11.374816233665323 1.1624521189001986
-161.9749652294854 -11.381305714699552 1.1586659440107145
-161.47426981919332 -11.387585920525721 1.154863939475883
-160.97357440890124 -11.393656333117239 1.151046266946071
-160.4728789986092 -11.399516434447511 1.1472130880716436
-159.9721835883171 -11.405165706489958 1.1433645645029658
-159.47148817802503 -11.410603631217981 1.1395008578904018
-158.97079276773297 -11.415829690604992 1.1356221298843203
-158.4700973574409 -11.420843366624412 1.1317285421350838
-157.9694019471488 -11.425644141249638 1.127820256293059
-157.46870653685676 -11.43023149645409 1.1238974340086103
-156.96801112656468 -11.43460491421117 1.1199602369321053
-156.4673157162726 -11.438763876494296 1.1160088267139074
-155.96662030598054 -11.442707865276878 1.1120433650043835
-155.46592489568846 -11.446436362532323 1.1080640134538986
-154.96522948539638 -11.449948850234042 1.104070933712817
-154.46453407510432 -11.453244810355452 1.1000642874315072
-153.96383866481224 -11.456323724869955 1.0960442362603309
-153.46314325452016 -11.459185075750966 1.0920109418496575
-152.9624478442281 -11.461828344971899 1.0879645658498487
-152.46175243393603 -11.464253014506157 1.0839052699112721
-151.96105702364395 -11.46645856632716 1.079833215684292
-151.4603616133519 -11.468444482408307 1.075748564819277
-150.9596662030598 -11.470210244723015 1.0716514789665887
-150.45897079276773 -11.4717553352447 1.0675421197765949
-149.95827538247568 -11.473079235946763 1.0634206488996605
-149.4575799721836 -11.474181428802618 1.059287227986149
-148.9568845618915 -11.475061395785682 1.0551420186864289
-148.45618915159943 -11.475718618869356 1.0509851826508636
-147.95549374130738 -11.476152580027057 1.0468168815298209
-147.4547983310153 -11.476362761232192 1.042637276973664
-146.95410292072324 -11.476348644458172 1.03844653063276
-146.45340751043116 -11.476109711678413 1.0342448041574719
-145.95271210013908 -11.475645444866318 1.0300322591981677
-145.452016689847 -11.474955325995301 1.0258090574052132
-144.95132127955495 -11.474038837038774 1.021575360428972
-144.45062586926286 -11.472895459970148 1.0173313299198097
-143.94993045897078 -11.47152467676283 1.0130771275280916
-143.44923504867873 -11.469925969390236 1.0088129149041847
-142.94853963838665 -11.468098819825768 1.0045388536984556
-142.44784422809457 -11.466042710042847 1.000255105561267
-141.9471488178025 -11.463757122014878 0.9959618321429845
-141.44645340751043 -11.461241537715269 0.9916591950939736
-140.94575799721835 -11.458495439117439 0.9873473560646019
-140.44506258692627 -11.45551830819479 0.9830264767052336
-139.94436717663422 -11.452309626920739 0.9786967186662338
-139.44367176634213 -11.448868877268692 0.9743582435979684
-138.94297635605005 -11.44519554121206 0.9700112131508035
-138.442280945758 -11.44128910072426 0.9656557889751024
-137.94158553546592 -11.437149037778696 0.9612921327212337
-137.44089012517384 -11.432774834348779 0.9569204060395599
-136.94019471488178 -11.428165972407925 0.9525407705804486
-136.4394993045897 -11.423321933929538 0.9481533879942651
-135.93880389429762 -11.41824220088703 0.9437584199313725
-135.43810848400557 -11.412926255253819 0.9393560280421397
-134.9374130737135 -11.407373579003306 0.9349463739769307
-134.4367176634214 -11.40158365410891 0.9305296193861089
-133.93602225312935 -11.395555962544032 0.9261059259200429
-133.43532684283727 -11.389289986282089 0.921675455229097
-132.9346314325452 -11.382785207296493 0.9172383689636362
-132.43393602225314 -11.37604110756065 0.9127948287740274
-131.93324061196105 -11.369057169047972 0.9083449963106348
-131.43254520166897 -11.361832873731874 0.9038890332238226
-130.93184979137692 -11.35436770358576 0.8994271011639586
-130.43115438108484 -11.346661140583048 0.8949593617814079
-129.93045897079276 -11.338712666697143 0.8904859767265364
-129.4297635605007 -11.330521763901453 0.886007107649711
-128.92906815020862 -11.3220879141694 0.8815229162012906
-128.42837273991654 -11.313410599474382 0.8770335640316475
-127.92767732962449 -11.30448930178982 0.8725392127911448
-127.4269819193324 -11.295323503089113 0.8680400241301468
-126.92628650904032 -11.285912685345684 0.8635361596990186
-126.42559109874827 -11.276256330532938 0.8590277811481307
-125.92489568845619 -11.266353920624281 0.8545150501278437
-125.42420027816411 -11.256204937593132 0.8499981282885244
-124.92350486787205 -11.2458088634129 0.845477177280538
-124.42280945757997 -11.235165180056992 0.8409523587542503
-123.92211404728789 -11.224273369498817 0.8364238343600275
-123.42141863699584 -11.213132913711796 0.8318917657482338
-122.92072322670376 -11.201743294669328 0.8273563145692359
-122.42002781641168 -11.190103994344833 0.8228176424733981
-121.91933240611961 -11.17821449471171 0.8182759111110872
-121.41863699582754 -11.16607427774338 0.8137312821326684
-120.91794158553546 -11.153682825413254 0.809183917188505
-120.41724617524339 -11.141039619694736 0.8046339779289639
-119.91655076495132 -11.12814414256124 0.8000816260044118
-119.41585535465924 -11.114995875986176 0.7955270230652131
-118.91515994436718 -11.101594301942955 0.7909703307617336
-118.41446453407511 -11.08793890240499 0.7864117107443386
-117.91376912378303 -11.074029159345685 0.7818513246633939
-117.41307371349096 -11.059864554738455 0.7772893341692647
-116.91237830319889 -11.045444570556716 0.772725900912317
-116.41168289290681 -11.03076868877387 0.768161186542914
-115.91098748261474 -11.015836391363335 0.7635953527114235
-115.41029207232268 -11.00064716029851 0.7590285610682107
-114.9095966620306 -10.985200477552818 0.7544609732636406
-114.40890125173853 -10.969495825099665 0.7498927509480801
-113.90820584144646 -10.953532684912458 0.7453240557718915
-113.40751043115438 -10.937310538964615 0.7407550493854437
-112.90681502086231 -10.920828869229544 0.7361858934390998
-112.40611961057024 -10.904087157680651 0.7316167495832259
-111.90542420027816 -10.88708488629135 0.727047779468187
-111.4047287899861 -10.869821537035058 0.7224791447443536
-110.90403337969401 -10.852296591885173 0.7179110070620828
-110.40333796940195 -10.834509532815119 0.7133435280717458
-109.90264255910988 -10.816459841798293 0.7087768694237052
-109.4019471488178 -10.798147000808113 0.7042111927683287
-108.90125173852573 -10.779570491817994 0.6996466597559813
-108.40055632823366 -10.760729796801337 0.6950834320370273
-107.89986091794158 -10.74162439773156 0.6905216712618308
-107.39916550764951 -10.722253776582072 0.6859615390807633
-106.89847009735745 -10.70261741532628 0.6814031971441835
-106.39777468706536 -10.682714795937597 0.676846807102461
-105.8970792767733 -10.66254540038944 0.6722925306059601
-105.39638386648123 -10.642108710655213 0.6677405293050466
-104.89568845618915 -10.621404208708324 0.663190964850083
-104.39499304589708 -10.600431376522186 0.6586439988914407
-103.89429763560501 -10.579189696070214 0.654099793079482
-103.39360222531293 -10.55767864932581 0.6495585090645685
-102.89290681502086 -10.535897718262394 0.6450203084970706
-102.3922114047288 -10.513846384853377 0.6404853530273552
-101.89151599443672 -10.49152413107216 0.6359538043057821
-101.39082058414465 -10.468930438892158 0.6314258239827234
-100.89012517385257 -10.446064790286785 0.6269015737085372
-100.3894297635605 -10.422926667229452 0.6223812151335947
-99.88873435326843 -10.399515551693568 0.6178649099082602
-99.38803894297635 -10.375830925652537 0.6133528196828969
-98.88734353268428 -10.351872271079774 0.6088451061078718
-98.38664812239222 -10.327639069948699 0.6043419308335508
-97.88595271210013 -10.303130804232708 0.5998434555102999
-97.38525730180807 -10.278346955905219 0.5953498417884834
-96.884561891516 -10.253287006939647 0.5908612513184671
-96.38386648122392 -10.227950439309392 0.5863778457506171
-95.88317107093185 -10.202336734987872 0.5818997867352959
-95.38247566063978 -10.176445375948498 0.5774272359228737
-94.8817802503477 -10.150275844164675 0.5729603549637104
-94.38108484005564 -10.12382762160982 0.5684993055081792
-93.88038942976357 -10.097100190257342 0.5640442492066379
-93.37969401947149 -10.070093032080647 0.5595953477094552
-92.87899860917942 -10.042805629053154 0.555152762666998
-92.37830319888734 -10.015237463148265 0.5507166557296287
-91.87760778859527 -9.987388016339395 0.5462871885477151
-91.3769123783032 -9.959256770599955 0.541864522771624
-90.87621696801112 -9.930843207903354 0.5374488200517161
-90.37552155771905 -9.902146810223005 0.533040242038361
-89.87482614742699 -9.873167059532317 0.5286389503819228
-89.3741307371349 -9.843903437804702 0.5242451067327639
-88.87343532684284 -9.814355427013563 0.5198588727412566
-88.37273991655077 -9.784522509132326 0.5154804100577607
-87.87204450625869 -9.754404166134393 0.5111098803326465
-87.37134909596662 -9.723999879993167 0.506747445216272
-86.87065368567455 -9.69330913268207 0.5023932663590104
-86.36995827538247 -9.662331406174511 0.4980475054112231
-85.8692628650904 -9.631066182443893 0.4937103240232771
-85.36856745479834 -9.599512943463635 0.48938188384553827
-84.86787204450626 -9.567671171207147 0.4850623465283682
-84.36717663421419 -9.535540347647832 0.48075187372213646
-83.86648122392211 -9.503119954759109 0.47645062707720987
-83.36578581363004 -9.470409474514389 0.4721587682439491
-82.86509040333797 -9.437408388887073 0.4678764588727219
-82.36439499304589 -9.404116179850586 0.4636038606138969
-81.86369958275382 -9.370532329378326 0.45934113511783303
-81.36300417246176 -9.336656319443705 0.4550884440348998
-80.86230876216968 -9.302487632020144 0.45084594901546227
-80.36161335187761 -9.268025749081044 0.44661381170988645
-79.86091794158554 -9.233270152599813 0.44239219376853567
-79.36022253129346 -9.198220324549876 0.43818125684177855
-78.85952712100139 -9.16287574690463 0.43398116257997843
-78.35883171070932 -9.127235901637489 0.4297920726335004
-77.85813630041724 -9.091300270721868 0.4256141486527113
-77.35744089012518 -9.055068336131173 0.4214475522879789
-76.85674547983311 -9.018539579838817 0.41729244518966035
-76.35605006954103 -8.98171348381821 0.41314898900813046
-75.85535465924896 -8.944589530042768 0.409017345393749
-75.35465924895689 -8.907167200485889 0.40489767599688464
-74.85396383866481 -8.869445977120987 0.40079014246790334
-74.35326842837274 -8.831425341921486 0.39669490645716754
-73.85257301808066 -8.793104776860782 0.39261212961504055
-73.3518776077886 -8.754483763912289 0.38854197359189635
-72.85118219749653 -8.71556178504943 0.38448460003809204
-72.35048678720445 -8.676338322245593 0.38044017060399626
-71.84979137691238 -8.636812857474206 0.37640884693997856
-71.34909596662031 -8.596984872708676 0.372390790696396
-70.84840055632823 -8.556853849922406 0.36838616352362175
-70.34770514603616 -8.516419271088823 0.36439512707201993
-69.8470097357441 -8.475680618181324 0.3604178429919477
-69.34631432545201 -8.434637373173315 0.35645447293378163
-68.84561891515995 -8.39328901803823 0.35250517854788244
-68.34492350486788 -8.351635034749451 0.3485701214846161
-67.8442280945758 -8.309674905280405 0.3446494633943432
-67.34353268428373 -8.267408111604505 0.3407433659274405
-66.84283727399166 -8.224834135695156 0.3368519907342632
-66.34214186369958 -8.181952459525759 0.3329754994651809
-65.84144645340751 -8.138762565069745 0.3291140537705578
-65.34075104311543 -8.095263934300513 0.32526781530076165
-64.84005563282336 -8.051456049191474 0.3214369457061549
-64.3393602225313 -8.007338391716038 0.31762160663710526
-63.838664812239216 -7.962910443847624 0.313821959743977
-63.33796940194715 -7.918171687559623 0.31003816667713957
-62.83727399165508 -7.873121604825469 0.3062703890869519
-62.336578581363 -7.827759677618561 0.3025187886237818
-61.83588317107093 -7.782085387912309 0.29878352693799515
-61.335187760778865 -7.736098217680125 0.29506476567996154
-60.834492350486784 -7.689797648895427 0.29136266650003806
-60.333796940194716 -7.643183163531612 0.2876773910485996
-59.83310152990265 -7.596254243562095 0.28400910097600496
-59.33240611961057 -7.549010370960302 0.28035795793262197
-58.8317107093185 -7.5014510276996145 0.27672412356881304
-58.33101529902643 -7.453575695753473 0.2731077595349459
-57.83031988873435 -7.405383857095268 0.26950902748139016
-57.329624478442284 -7.356874993698417 0.2659280890585082
-56.82892906815022 -7.308048587536339 0.2623651059166606
-56.328233657858135 -7.258904120582427 0.2588202397062188
-55.82753824756607 -7.209441074810099 0.2552936520775487
-55.326842837273986 -7.159658932192775 0.251785504681011
-54.82614742698192 -7.109557174703861 0.24829595916697522
-54.32545201668985 -7.059135284316751 0.244825177185802
-53.82475660639777 -7.008392743004881 0.2413733203878644
-53.3240611961057 -6.957329032741653 0.23794055042352313
-52.823365785813635 -6.905943635500469 0.23452702894314414
-52.322670375521554 -6.854236033254741 0.2311329175970952
-51.82197496522949 -6.802205707977892 0.22775837803573518
-51.321279554937405 -6.749852141643318 0.22440357190943538
-50.82058414464535 -6.697174816224441 0.2210686608685618
-50.31988873435327 -6.644173213694669 0.2177538065634751
-49.81919332406119 -6.5908468160274065 0.21445917064454834
-49.318497913769136 -6.537195105196075 0.2111849147621404
-48.817802503477054 -6.483217563174074 0.20793120056661551
-48.31710709318497 -6.428913671934813 0.20469818970834674
-47.81641168289292 -6.374282913451717 0.2014860438376912
-47.31571627260084 -6.31932476969819 0.19829492460502196
-46.81502086230876 -6.264038722647632 0.19512499366069969
-46.3143254520167 -6.208424254273465 0.19197641265509213
-45.81363004172462 -6.152480846549102 0.1888493432385635
-45.31293463143254 -6.096207981447938 0.18574394706147979
-44.81223922114049 -6.039605140943406 0.1826603857742034
-44.311543810848406 -5.982671807008904 0.17959882102710567
-43.810848400556324 -5.925407461617832 0.17655941447054901
-43.31015299026427 -5.867811586743626 0.17354232775489586
-42.80945757997219 -5.809883664359683 0.17054772253051576
-42.30876216968011 -5.7516231764394 0.16757576044777467
-41.808066759388026 -5.693029604956211 0.1646266031570368
-41.30737134909597 -5.634102431883528 0.16170041230866816
-40.80667593880389 -5.574841139194733 0.15879734955302938
-40.30598052851181 -5.51524520886325 0.15591757654049532
-39.80528511821976 -5.455314122862516 0.15306125492142308
-39.304589707927676 -5.395047363165906 0.150228546346184
-38.803894297635594 -5.334444411746839 0.1474196124651369
-38.30319888734354 -5.273504750578747 0.14463461492865493
-37.80250347705146 -5.212227861635009 0.1418737153870987
-37.30180806675938 -5.150613226889055 0.1391370754908342
-36.801112656467325 -5.088660328314303 0.13642485689022565
-36.30041724617524 -5.026368647884139 0.13373722123564435
-35.79972183588316 -4.963737667571989 0.13107433017744918
-35.29902642559111 -4.9007668693512745 0.1284363453660079
-34.79833101529903 -4.837455735195379 0.12582342845168826
-34.297635605006946 -4.77380374707773 0.12323574108485447
-33.79694019471489 -4.709810386971752 0.12067344491586895
-33.29624478442281 -4.645475136850818 0.11813670159510126
-32.79554937413073 -4.580797478688366 0.1156256727729138
-32.294853963838676 -4.515776894457817 0.11314052009967435
-31.794158553546595 -4.4504128661325435 0.11068140522574887
-31.293463143254513 -4.384704875685982 0.10824848980149981
-30.79276773296246 -4.318652405091553 0.1058419354772967
-30.29207232267038 -4.252254936322645 0.10346190390350019
-29.791376912378297 -4.185511951352668 0.10110855673047625
-29.290681502086244 -4.118422932155061 0.09878205560859443
-28.789986091794162 -4.050987360703202 0.09648256218822071
-28.28929068150208 -3.9832047189705135 0.09421023811971574
-27.788595271210028 -3.9150744889304234 0.09196524505344905
-27.287899860917946 -3.8465961525563137 0.08974774463977953
-26.787204450625865 -3.7777691918216063 0.0875578985290838
-26.28650904033381 -3.7085930886997196 0.08539586837171897
-25.78581363004173 -3.6390673251640506 0.08326181581805103
-25.28511821974965 -3.5691913831880178 0.08115590251844595
-24.784422809457595 -3.49896474474505 0.07907829012327505
-24.283727399165514 -3.428386891808523 0.07702914028289365
-23.783031988873432 -3.3574573063518627 0.07500861464767483
-23.28233657858135 -3.2861754703484904 0.0730168748679828
-22.781641168289298 -3.2145408657718106 0.07105408259417823
-22.280945757997216 -3.1425529745952168 0.06912039947663773
-21.780250347705135 -3.0702112787921414 0.06721598716571131
-21.27955493741308 -2.9975152603359887 0.06534100731177916
-20.778859527121 -2.924464401200163 0.06349562156519661
-20.27816411682892 -2.851058183358082 0.061679991576336746
-19.777468706536865 -2.7772960887831615 0.059894278995554884
-19.276773296244784 -2.7031775994487943 0.05813864547322767
-18.776077885952702 -2.628702197328406 0.0564132526597122
-18.27538247566065 -2.5538693643954047 0.05471826220537801
-17.774687065368568 -2.478678582623194 0.053053835760591084
-17.273991655076486 -2.4031293339851962 0.0514201349757174
-16.773296244784433 -2.3272211004548153 0.04981732150111762
-16.27260083449235 -2.2509533640054555 0.04824555698716304
-15.77190542420027 -2.1743256066105388 0.046705003084214325
-15.271210013908217 -2.097337310243469 0.045195821442641004
-14.770514603616135 -2.0199879568776615 0.043718173712801955
-14.269819193324054 -1.9422770284865272 0.042272221545075594
-13.769123783032 -1.8642040070434738 0.040858126589811916
-13.268428372739919 -1.7857683745219055 0.03947605049738756
-12.767732962447838 -1.7069696128952443 0.038126154918164956
-12.267037552155784 -1.6278072041369014 0.036808601502504756
-11.766342141863703 -1.5482806302202703 0.035523551900776495
-11.265646731571621 -1.4683893731187836 0.03427116776334971
-10.764951321279568 -1.3881329148058419 0.03305161074058505
-10.264255910987487 -1.3075107372548493 0.03186504248284672
-9.763560500695405 -1.2265223224392208 0.0307116246405007
-9.262865090403352 -1.1451671523323852 0.029591518863914756
-8.76216968011127 -1.063444708907722 0.028504886803458418
