Polar data for 2 at Re = 282857.1428571429
Alpha (deg) Cl Cd
-180.0 -8.450985620534984 0.7621889241287437
-179.49930458970792 -8.467611652734266 0.7604816644990285
-178.99860917941587 -8.484087108456237 0.758761876311237
-178.49791376912378 -8.500411302092369 0.757029646520729
-177.9972183588317 -8.516583548034127 0.7552850620828643
-177.49652294853965 -8.53260316067298 0.7535282099530031
-176.99582753824757 -8.548469454400406 0.7517591770865052
-176.4951321279555 -8.564181743607868 0.7499780504387309
-175.99443671766343 -8.579739342686837 0.7481849169650413
-175.49374130737135 -8.595141566028783 0.7463798636207949
-174.99304589707927 -8.610387728025177 0.7445629773613528
-174.49235048678722 -8.62547714306749 0.7427343451420748
-173.99165507649514 -8.640409125547187 0.7408940539183216
-173.49095966620305 -8.655182989855746 0.7390421906454517
-172.990264255911 -8.669798050384628 0.7371788422788262
-172.48956884561892 -8.684253621525311 0.7353040957738058
-171.98887343532684 -8.698549017669256 0.7334180380857499
-171.48817802503476 -8.712683553207942 0.7315207561700187
-170.9874826147427 -8.726656542532833 0.7296123369819728
-170.48678720445062 -8.740467300035402 0.7276928674769704
-169.98609179415854 -8.754115140107114 0.7257624346103747
-169.4853963838665 -8.767599377139444 0.723821125337543
-168.9847009735744 -8.780919325523863 0.7218690266138367
-168.48400556328232 -8.794074299651834 0.7199062253946166
-167.98331015299027 -8.807063613914835 0.7179328086352407
-167.4826147426982 -8.81988658270433 0.7159488632910714
-166.9819193324061 -8.832542520411792 0.7139544763174669
-166.48122392211405 -8.845030741428687 0.7119497346697886
-165.98052851182197 -8.85735056014649 0.7099347253033964
-165.4798331015299 -8.86950129095667 0.7079095351736501
-164.97913769123784 -8.881482248250695 0.7058742512359094
-164.47844228094576 -8.89329274642003 0.7038289604455351
-163.97774687065368 -8.904932099856158 0.7017737497578865
-163.47705146036162 -8.916399622950538 0.6997087061283244
-162.97635605006954 -8.927694630094642 0.6976339165122093
-162.47566063977746 -8.938816435679943 0.6955494678649002
-161.9749652294854 -8.949764354097908 0.6934554471417583
-161.47426981919332 -8.960537699740009 0.691351941298142
-160.97357440890124 -8.971135786997712 0.6892390372894134
-160.4728789986092 -8.981557930262491 0.6871168220709317
-159.9721835883171 -8.991803443925818 0.6849853825980569
-159.47148817802503 -9.001871642379156 0.6828448058261495
-158.97079276773297 -9.011761840013975 0.6806951787105698
-158.4700973574409 -9.021473351221754 0.6785365882066764
-157.9694019471488 -9.031005490393955 0.6763691212698307
-157.46870653685676 -9.040357571922051 0.6741928648553922
-156.96801112656468 -9.049528910197509 0.672007905918722
-156.4673157162726 -9.058518819611802 0.6698143314151793
-155.96662030598054 -9.0673266145564 0.667612228300125
-155.46592489568846 -9.075951609422768 0.6654016835289184
-154.96522948539638 -9.084393118602385 0.6631827840569192
-154.46453407510432 -9.092650456486709 0.6609556168394891
-153.96383866481224 -9.100722937467221 0.6587202688319861
-153.46314325452016 -9.108609875935382 0.6564768269897726
-152.9624478442281 -9.116310586282669 0.6542253782682071
-152.46175243393603 -9.123824382900551 0.6519660096226495
-151.96105702364395 -9.131150580180496 0.6496988080084612
-151.4603616133519 -9.138288492513968 0.6474238603810013
-150.9596662030598 -9.14523743429245 0.6451412536956308
-150.45897079276773 -9.1519967199074 0.6428510749077087
-149.95827538247568 -9.158565663750293 0.6405534109725964
-149.4575799721836 -9.164943580212599 0.6382483488456522
-148.9568845618915 -9.171129783685789 0.6359359754822379
-148.45618915159943 -9.17712358856133 0.633616377837713
-147.95549374130738 -9.18292430923069 0.6312896428674372
-147.4547983310153 -9.188531260085346 0.6289558575267716
-146.95410292072324 -9.193943755516765 0.6266151087710753
-146.45340751043116 -9.199161109916414 0.6242674835557088
-145.95271210013908 -9.204182637675766 0.6219130688360311
-145.452016689847 -9.209007653186285 0.6195519515674052
-144.95132127955495 -9.213635470839451 0.6171842187051885
-144.45062586926286 -9.218065405026724 0.6148099572047417
-143.94993045897078 -9.222296770139584 0.6124292540214243
-143.44923504867873 -9.226328880569492 0.6100421961105987
-142.94853963838665 -9.230161050707919 0.6076488704276234
-142.44784422809457 -9.233792594946339 0.605249363927859
-141.9471488178025 -9.237222827676222 0.6028437635666645
-141.44645340751043 -9.240451063289035 0.6004321562994
-140.94575799721835 -9.243476616176247 0.5980146290814278
-140.44506258692627 -9.24629880072933 0.5955912688681056
-139.94436717663422 -9.248916931339755 0.5931621626147957
-139.44367176634213 -9.251330322398989 0.590727397276856
-138.94297635605005 -9.2535382882985 0.5882870598096471
-138.442280945758 -9.25554014342977 0.5858412371685308
-137.94158553546592 -9.257335202184255 0.5833900163088653
-137.44089012517384 -9.258922778953428 0.5809334841860111
-136.94019471488178 -9.260302188128762 0.5784717277553296
-136.4394993045897 -9.261472744101729 0.5760048339721794
-135.93880389429762 -9.262433761263795 0.5735328897919206
-135.43810848400557 -9.263184554006429 0.5710559821699136
-134.9374130737135 -9.263724436721102 0.568574198061519
-134.4367176634214 -9.264052723799285 0.5660876244220961
-133.93602225312935 -9.26416872963245 0.5635963482070067
-133.43532684283727 -9.264071768612064 0.5611004563716085
-132.9346314325452 -9.263761155129592 0.5586000358712638
-132.43393602225314 -9.263236203576513 0.5560951736613305
-131.93324061196105 -9.262496228344293 0.5535859566971703
-131.43254520166897 -9.261540543824403 0.5510724719341428
-130.93184979137692 -9.260368464408309 0.5485548063276088
-130.43115438108484 -9.258979304487486 0.5460330468329267
-129.93045897079276 -9.257372378453399 0.5435072804054587
-129.4297635605007 -9.25554700069752 0.540977594000564
-128.92906815020862 -9.253502485611323 0.5384440745736015
-128.42837273991654 -9.251238147586273 0.5359068090799343
-127.92767732962449 -9.24875330101384 0.5333658844749188
-127.4269819193324 -9.246047260285494 0.5308213877139173
-126.92628650904032 -9.24311933979271 0.528273405752289
-126.42559109874827 -9.23996885392695 0.5257220255453955
-125.92489568845619 -9.23659511707969 0.5231673340485953
-125.42420027816411 -9.232997443642397 0.5206094182172486
-124.92350486787205 -9.229175148006544 0.5180483650067166
-124.42280945757997 -9.225127544563597 0.515484261372359
-123.92211404728789 -9.220853947705024 0.5129171942695353
-123.42141863699584 -9.2163536718223 0.5103472506536052
-122.92072322670376 -9.211626031306894 0.5077745174799321
-122.42002781641168 -9.206670340550279 0.5051990817038713
-121.91933240611961 -9.201485913943912 0.5026210302807853
-121.41863699582754 -9.196072065879278 0.5000404501660339
-120.91794158553546 -9.190428110747842 0.49745742831497824
-120.41724617524339 -9.184553362941072 0.4948720516829777
-119.91655076495132 -9.178447136850433 0.49228440722539163
-119.41585535465924 -9.172108746867407 0.4896945818975807
-118.91515994436718 -9.165537507383455 0.48710266265490515
-118.41446453407511 -9.158732732790048 0.48450873645272524
-117.91376912378303 -9.15169373747866 0.4819128902464012
-117.41307371349096 -9.144419835840756 0.47931521099129243
-116.91237830319889 -9.136910342267809 0.4767157856427591
-116.41168289290681 -9.129164571151284 0.47411470115616067
-115.91098748261474 -9.121181836882661 0.47151204448685907
-115.41029207232268 -9.1129614538534 0.46890790259021414
-114.9095966620306 -9.104502736454975 0.46630236242158435
-114.40890125173853 -9.095804999078856 0.4636955109363317
-113.90820584144646 -9.08686755611651 0.4610874350898147
-113.40751043115438 -9.077689721959416 0.4584782218373931
-112.90681502086231 -9.068270810999033 0.4558679581344299
-112.40611961057024 -9.058610137626834 0.45325673093628255
-111.90542420027816 -9.048707016234289 0.4506446271983123
-111.4047287899861 -9.03856076121287 0.4480317338758775
-110.90403337969401 -9.028170686954047 0.4454181379243403
-110.40333796940195 -9.01753610784929 0.44280392629906
-109.90264255910988 -9.006656338290068 0.4401891859553973
-109.4019471488178 -8.995530692667844 0.4375740038487111
-108.90125173852573 -8.9841584853741 0.43495846693436296
-108.40055632823366 -8.9725390308003 0.43234266216771094
-107.89986091794158 -8.960671643337914 0.42972667650411706
-107.39916550764951 -8.948555637378409 0.42711059689894154
-106.89847009735745 -8.936190327313263 0.42449451030754287
-106.39777468706536 -8.923575027533937 0.42187850368528174
-105.8970792767733 -8.910709052431907 0.4192626639875197
-105.39638386648123 -8.897591716398638 0.41664707816961394
-104.89568845618915 -8.884222333825607 0.41403183318692777
-104.39499304589708 -8.870600219104277 0.41141701599482056
-103.89429763560501 -8.85672468662612 0.40880271354865033
-103.39360222531293 -8.842595050782604 0.40618901280377867
-102.89290681502086 -8.828210625965205 0.40357600071556404
-102.3922114047288 -8.81357072656539 0.40096376423937025
-101.89151599443672 -8.798674666974625 0.3983523903305531
-101.39082058414465 -8.783521761584382 0.39574196594447725
-100.89012517385257 -8.768111324786135 0.3931325780364981
-100.3894297635605 -8.752442670971352 0.390524313561979
-99.88873435326843 -8.736515114531498 0.38791725947627925
-99.38803894297635 -8.720327969858044 0.3853115027347583
-98.88734353268428 -8.70388055134247 0.3827071302927763
-98.38664812239222 -8.687172173376235 0.3801042291056949
-97.88595271210013 -8.670202150350809 0.37750288612887123
-97.38525730180807 -8.652969796657665 0.37490318831766906
-96.884561891516 -8.635474426688278 0.37230522262744553
-96.38386648122392 -8.61771535483411 0.3697090760135618
-95.88317107093185 -8.599691895486632 0.36711483543137896
-95.38247566063978 -8.581403363037317 0.3645225878362555
-94.8817802503477 -8.562849071877638 0.3619324201835504
-94.38108484005564 -8.544028336399057 0.3593444194286269
-93.88038942976357 -8.524940470993046 0.35675867252684484
-93.37969401947149 -8.505584790051081 0.35417526643356095
-92.87899860917942 -8.485960607964623 0.351594288104139
-92.37830319888734 -8.466067239125149 0.3490158244939375
-91.87760778859527 -8.445903997924121 0.3464399625583166
-91.3769123783032 -8.425470198753018 0.34386678925263753
-90.87621696801112 -8.404765156003304 0.3412963915322587
-90.37552155771905 -8.38378818406645 0.3387288563525395
-89.87482614742699 -8.362538597333929 0.33616427066884375
-89.3741307371349 -8.34101571019721 0.3336027214365272
-88.87343532684284 -8.319218837047758 0.3310442956109528
-88.37273991655077 -8.29714729227705 0.32848908014747896
-87.87204450625869 -8.274800390276548 0.32593716200146866
-87.37134909596662 -8.25217744543773 0.3233886281282777
-86.87065368567455 -8.229277772152058 0.3208435654832698
-86.36995827538247 -8.20610068481101 0.31830206102180353
-85.8692628650904 -8.18264549780605 0.3157642016992391
-85.36856745479834 -8.15891152552865 0.3132300744709367
-84.86787204450626 -8.134898082370277 0.31069976629225576
-84.36717663421419 -8.110604482722405 0.3081733641185574
-83.86648122392211 -8.086030040976505 0.30565095490520183
-83.36578581363004 -8.061174071524041 0.30313262560754933
-82.86509040333797 -8.036035888756489 0.3006184631809575
-82.36439499304589 -8.010614807065313 0.29810855458079005
-81.86369958275382 -7.984910140841989 0.29560298676240465
-81.36300417246176 -7.9589212044779805 0.2931018466811615
-80.86230876216968 -7.932647312364764 0.2906052212924209
-80.36161335187761 -7.906087778893805 0.2881131975515457
-79.86091794158554 -7.879241918456571 0.2856258624138917
-79.36022253129346 -7.852109045444544 0.28314330283482186
-78.85952712100139 -7.824688474249183 0.2806656057696946
-78.35883171070932 -7.796979519261957 0.27819285817387024
-77.85813630041724 -7.76898149487434 0.27572514700270984
-77.35744089012518 -7.740693715477801 0.27326255921157455
-76.85674547983311 -7.71211549546381 0.2708051817558211
-76.35605006954103 -7.68324614922384 0.2683531015908123
-75.85535465924896 -7.6540849911493565 0.26590640567190765
-75.35465924895689 -7.624631335631826 0.2634651809544664
-74.85396383866481 -7.594884497062732 0.26102951439384886
-74.35326842837274 -7.564843789833527 0.258599492945417
-73.85257301808066 -7.534508528335693 0.25617520356452755
-73.3518776077886 -7.503878026960694 0.2537567332065452
-72.85118219749653 -7.47295160010001 0.2513441688268248
-72.35048678720445 -7.441728562145092 0.24893759738072935
-71.84979137691238 -7.410208227487428 0.24653710582361993
-71.34909596662031 -7.378389910518481 0.24414278111085502
-70.84840055632823 -7.346272925629719 0.24175471019779488
-70.34770514603616 -7.31385658721261 0.23937298003980062
-69.8470097357441 -7.281140209658635 0.23699767759222984
-69.34631432545201 -7.248123107359253 0.23462888981044455
-68.84561891515995 -7.214804594705936 0.2322667036498059
-68.34492350486788 -7.181183986090157 0.22991120606567145
-67.8442280945758 -7.147260595903382 0.22756248401340234
-67.34353268428373 -7.11303373853709 0.2252206244483615
-66.84283727399166 -7.078502728382744 0.22288571432590382
-66.34214186369958 -7.043666879831801 0.2205578406013931
-65.84144645340751 -7.0085255072757535 0.21823709023018695
-65.34075104311543 -6.9730779251060655 0.21592355016764825
-64.84005563282336 -6.937323447714195 0.2136173073691337
-64.3393602225313 -6.901261389491622 0.2113184487900071
-63.838664812239216 -6.864891064829819 0.20902706138562605
-63.33796940194715 -6.8282117881202415 0.20674323211135343
-62.83727399165508 -6.791222873754379 0.20446704792254505
-62.336578581363 -6.753923636123692 0.20219859577456384
-61.83588317107093 -6.716313389619644 0.19993796262276914
-61.335187760778865 -6.678391448633712 0.19768523542252298
-60.834492350486784 -6.6401571275573685 0.19544050112918115
-60.333796940194716 -6.601609740782076 0.19320384669810836
-59.83310152990265 -6.562748602699307 0.19097535908466218
-59.33240611961057 -6.523573027700542 0.18875512524420374
-58.8317107093185 -6.484082330177231 0.1865432321320915
-58.33101529902643 -6.4442758245208625 0.18433976670368662
-57.83031988873435 -6.404152825122893 0.18214481591435022
-57.329624478442284 -6.363712646374792 0.17995846671944166
-56.82892906815022 -6.322954602668047 0.17778080607432029
-56.328233657858135 -6.281878008394112 0.17561192093434635
-55.82753824756607 -6.240482177944457 0.173451898254881
-55.326842837273986 -6.198766425710557 0.17130082499128446
-54.82614742698192 -6.156730066083884 0.1691587880989152
-54.32545201668985 -6.114372413455903 0.16702587453313172
-53.82475660639777 -6.0716927822180855 0.16490217124930046
-53.3240611961057 -6.0286904867618984 0.16278776520277632
-52.823365785813635 -5.985364841478815 0.16068274334892046
-52.322670375521554 -5.941715160760306 0.158587192643094
-51.82197496522949 -5.897740758997847 0.15650120004065543
-51.321279554937405 -5.853440950582892 0.15442485249696586
-50.82058414464535 -5.808815049906921 0.15235823696738643
-50.31988873435327 -5.763862371361408 0.15030144040727383
-49.81919332406119 -5.718582229337808 0.14825454977199187
-49.318497913769136 -5.672973938227609 0.146217652016899
-48.817802503477054 -5.627036812422275 0.1441908340973555
-48.31710709318497 -5.580770166313264 0.1421741829687207
-47.81641168289292 -5.534173314292061 0.14016778558635662
-47.31571627260084 -5.487245570750132 0.13817172890562263
-46.81502086230876 -5.439986250078937 0.1361860998818763
-46.3143254520167 -5.3923946666699605 0.13421098547048055
-45.81363004172462 -5.344470134914665 0.13224647262679562
-45.31293463143254 -5.296211969204516 0.13029264830618176
-44.81223922114049 -5.247619483930996 0.12834959946399477
-44.311543810848406 -5.198691993485567 0.1264174130556011
-43.810848400556324 -5.149428812259695 0.12449617603635484
-43.31015299026427 -5.099829254644855 0.12258597536162148
-42.80945757997219 -5.049892635032523 0.12068689798675687
-42.30876216968011 -4.9996182678141485 0.11879903086712569
-41.808066759388026 -4.949005467381226 0.11692246095808197
-41.30737134909597 -4.898053548125222 0.11505727521499128
-40.80667593880389 -4.846761824437585 0.1132035605932112
-40.30598052851181 -4.795129610709792 0.11136140404810198
-39.80528511821976 -4.743156221333343 0.10953089253502475
-39.304589707927676 -4.690840970699663 0.1077121130093371
-38.803894297635594 -4.638183173200253 0.10590515242640104
-38.30319888734354 -4.585182143226581 0.1041100977415786
-37.80250347705146 -4.531837195170097 0.10232703591022647
-37.30180806675938 -4.478147643422285 0.1005560538877049
-36.801112656467325 -4.424112802374622 0.09879723862937768
-36.30041724617524 -4.369731986418556 0.09705067709059885
-35.79972183588316 -4.3150045099455765 0.09531645622673308
-35.29902642559111 -4.259929687347152 0.09359466299314063
-34.79833101529903 -4.204506833014739 0.09188538434517819
-34.297635605006946 -4.148735261339815 0.09018870723821044
-33.79694019471489 -4.0926142867138635 0.08850471862759497
-33.29624478442281 -4.0361432235283266 0.08683350546869113
-32.79554937413073 -3.979321386174685 0.08517515471685917
-32.294853963838676 -3.922148089044433 0.08352975332746111
-31.794158553546595 -3.864622646529006 0.08189738825585631
-31.293463143254513 -3.8067443730198844 0.08027814645740235
-30.79276773296246 -3.7485125829085595 0.07867211488746302
-30.29207232267038 -3.6899265905864658 0.0770793805013968
-29.791376912378297 -3.6309857104450947 0.07550003025456127
-29.290681502086244 -3.571689256875927 0.07393415110232289
-28.789986091794162 -3.5120365442704005 0.07238183000003391
-28.28929068150208 -3.4520268870199997 0.07084315390306169
-27.788595271210028 -3.3916595995162053 0.06931820976676202
-27.287899860917946 -3.330933996150484 0.06780708454649516
-26.787204450625865 -3.269849391314291 0.06630986519762135
-26.28650904033381 -3.208405099399118 0.06482663867550527
-25.78581363004173 -3.1466004347964143 0.06335749193550007
-25.28511821974965 -3.0844347118976456 0.061902511932968654
-24.784422809457595 -3.021907245094325 0.06046178562327305
-24.283727399165514 -2.9590173487778655 0.059035399961769056
-23.783031988873432 -2.8957643373397692 0.05762344190382403
-23.28233657858135 -2.83214752517151 0.056225998404790214
-22.781641168289298 -2.7681662266645395 0.05484315642002964
-22.280945757997216 -2.7038197562103354 0.05347500290490788
-21.780250347705135 -2.639107428200382 0.05212162481477807
-21.27955493741308 -2.5740285570261205 0.050783109105003124
-20.778859527121 -2.5085824570790427 0.049459542730944175
-20.27816411682892 -2.442768442750608 0.048151012647958805
-19.777468706536865 -2.3765858284323036 0.04685760581140992
-19.276773296244784 -2.3100339285155647 0.045579409176656
-18.776077885952702 -2.243112057391893 0.044316509699057274
-18.27538247566065 -2.175819529452748 0.04306899433397578
-17.774687065368568 -2.108155659089589 0.0418369500367682
-17.273991655076486 -2.040119760693911 0.04062046376279656
-16.773296244784433 -1.9717111486571703 0.039419622467420215
-16.27260083449235 -1.9029291373708255 0.03823451310600119
-15.77190542420027 -1.8337730412263575 0.03706522263389707
-15.271210013908217 -1.764242174615233 0.03591183800646987
-14.770514603616135 -1.6943358519289327 0.03477444617907806
-14.269819193324054 -1.6240533875589123 0.03365313410708366
-13.769123783032 -1.5533940958966561 0.03254798874584426
-13.268428372739919 -1.482357291333613 0.03145909705072099
-12.767732962447838 -1.410942288261267 0.030386545977075866
-12.267037552155784 -1.339148401071092 0.029330422480266474
-11.766342141863703 -1.266974944154547 0.02829081351565306
-11.265646731571621 -1.1944212319031167 0.027267806038598533
-10.764951321279568 -1.1214865787082566 0.026261487004460474
-10.264255910987487 -1.0481702989614334 0.02527194336859824
-9.763560500695405 -0.9744717070541313 0.024299262086374743
-9.262865090403352 -0.9003901173778133 0.023343530113147562
-8.76216968011127 -0.8259248443239493 0.022404834404277832
-8.261474269819189 -0.751075202284013 0.021483261915125798
