Polar data for a18sm at Re = 1862758.6206896554
Alpha (deg) Cl Cd
-180.0 -13.29814741611337 3.3696575844286123
-179.49930458970792 -13.294482319408822 3.362115786141464
-178.99860917941587 -13.290564444396345 3.354511884167769
-178.49791376912378 -13.28639427935747 3.346846308717609
-177.9972183588317 -13.28197231257371 3.339119490001071
-177.49652294853965 -13.277299032326567 3.3313318582282356
-176.99582753824757 -13.272374926897573 3.323483843609184
-176.4951321279555 -13.267200484568235 3.3155758763540053
-175.99443671766343 -13.261776193620076 3.3076083866727775
-175.49374130737135 -13.25610254233461 3.2995818047755865
-174.99304589707927 -13.250180018993355 3.2914965608725204
-174.49235048678722 -13.244009111877823 3.283353085173653
-173.99165507649514 -13.237590309269539 3.275151807889074
-173.49095966620305 -13.230924099450004 3.266893159228861
-172.990264255911 -13.224010970700746 3.258577569403103
-172.48956884561892 -13.216851411303285 3.2502054686218838
-171.98887343532684 -13.209445909539134 3.241777287095287
-171.48817802503476 -13.20179495368981 3.233293455033385
-170.9874826147427 -13.193899032036821 3.2247544026462798
-170.48678720445062 -13.185758632861688 3.2161605601440346
-169.98609179415854 -13.177374244445932 3.20751235773675
-169.4853963838665 -13.168746355071068 3.1988102256344977
-168.9847009735744 -13.15987545301861 3.1900545940473677
-168.48400556328232 -13.150762026570082 3.1812458931854444
-167.98331015299027 -13.141406564006989 3.172384553258805
-167.4826147426982 -13.131809553610854 3.1634710044775343
-166.9819193324061 -13.121971483663192 3.1545056770517217
-166.48122392211405 -13.111892842445524 3.145489001191443
-165.98052851182197 -13.101574118239363 3.1364214071067877
-165.4798331015299 -13.091015799326222 3.1273033250078353
-164.97913769123784 -13.080218373987623 3.1181351851046646
-164.47844228094576 -13.069182330505075 3.1089174176073673
-163.97774687065368 -13.057908157160103 3.0996504527260207
-163.47705146036162 -13.04639634223421 3.090334720670718
-162.97635605006954 -13.034647374008937 3.080970651651528
-162.47566063977746 -13.022661740765788 3.0715586758785474
-161.9749652294854 -13.010439930786266 3.0620992235618534
-161.47426981919332 -12.9979824323519 3.0525927249115288
-160.97357440890124 -12.985289733744214 3.04303961013766
-160.4728789986092 -12.972362323244713 3.0334403094503255
-159.9721835883171 -12.95920068913491 3.023795253059612
-159.47148817802503 -12.945805319696333 3.0141048711756024
-158.97079276773297 -12.932176703210505 3.0043695940083843
-158.4700973574409 -12.918315327958911 2.9945898517680316
-157.9694019471488 -12.904221682223103 2.984766074664636
-157.46870653685676 -12.889896254284576 2.9748986929082744
-156.96801112656468 -12.875339532424853 2.964988136709037
-156.4673157162726 -12.860552004925445 2.9550348362770027
-155.96662030598054 -12.845534160067878 2.9450392218222543
-155.46592489568846 -12.83028648613367 2.9350017235548815
-154.96522948539638 -12.814809471404327 2.924922771684953
-154.46453407510432 -12.799103604161367 2.9148027964225687
-153.96383866481224 -12.783169372686313 2.9046422279778046
-153.46314325452016 -12.767007265260688 2.8944414965607432
-152.9624478442281 -12.750617770165984 2.884201032381471
-152.46175243393603 -12.734001375683736 2.87392126565007
-151.96105702364395 -12.717158570095457 2.863602626576622
-151.4603616133519 -12.700089841682665 2.8532455453712107
-150.9596662030598 -12.68279567872688 2.8428504522439244
-150.45897079276773 -12.665276569509604 2.8324177774048422
-149.95827538247568 -12.647533002312379 2.821947951064045
-149.4575799721836 -12.629565465416682 2.8114414034316173
-148.9568845618915 -12.611374447104065 2.800898564717647
-148.45618915159943 -12.592960435656035 2.790319865132215
-147.95549374130738 -12.574323919354097 2.7797057348853986
-147.4547983310153 -12.555465386479792 2.769056604187293
-146.95410292072324 -12.536385325314601 2.758372903247974
-146.45340751043116 -12.517084224140081 2.7476550622775235
-145.95271210013908 -12.497562571237712 2.736903511486025
-145.452016689847 -12.477820854889028 2.726118681083568
-144.95132127955495 -12.457859563375546 2.715301001280233
-144.45062586926286 -12.43767918497878 2.7044509022861014
-143.94993045897078 -12.417280207980252 2.6935688143112575
-143.44923504867873 -12.396663120661469 2.6826551675657857
-142.94853963838665 -12.375828411303953 2.6717103922597705
-142.44784422809457 -12.354776568189227 2.6607349186032927
-141.9471488178025 -12.33350807959879 2.6497291768064333
-141.44645340751043 -12.312023433814165 2.6386935970792766
-140.94575799721835 -12.29032311911688 2.6276286096319144
-140.44506258692627 -12.268407623788445 2.6165346446744167
-139.94436717663422 -12.246277436110372 2.6054121324168804
-139.44367176634213 -12.223933044364184 2.5942615030693776
-138.94297635605005 -12.201374936831389 2.583083186842
-138.442280945758 -12.178603601793508 2.5718776139448227
-137.94158553546592 -12.155619527532057 2.5606452145879395
-137.44089012517384 -12.132423202328557 2.549386418981422
-136.94019471488178 -12.109015114464523 2.5381016573353623
-136.4394993045897 -12.08539575222147 2.526791359859841
-135.93880389429762 -12.061565603880911 2.5154559567649404
-135.43810848400557 -12.037525157724357 2.5040958782607454
-134.9374130737135 -12.013274902033348 2.4927115545573386
-134.4367176634214 -11.988815325089373 2.481303415864801
-133.93602225312935 -11.964146915173966 2.4698718923932237
-133.43532684283727 -11.939270160568643 2.4584174143526827
-132.9346314325452 -11.914185549554912 2.4469404119532623
-132.43393602225314 -11.888893570414293 2.435441315405047
-131.93324061196105 -11.86339471142831 2.423920554918121
-131.43254520166897 -11.837689460878462 2.412378560702562
-130.93184979137692 -11.811778307046286 2.4008157629684668
-130.43115438108484 -11.785661738213282 2.389232591925902
-129.93045897079276 -11.75934024266098 2.3776294777849643
-129.4297635605007 -11.732814308670886 2.3660068507557295
-128.92906815020862 -11.706084424524509 2.354365141048282
-128.42837273991654 -11.679151078503399 2.3427047788727133
-127.92767732962449 -11.652014758889035 2.331026194439092
-127.4269819193324 -11.624675953962953 2.319329817957515
-126.92628650904032 -11.597135152006661 2.307616079638054
-126.42559109874827 -11.569392841301681 2.2958854096908023
-125.92489568845619 -11.541449510129535 2.284138238325843
-125.42420027816411 -11.51330564677173 2.272374995753248
-124.92350486787205 -11.484961739509775 2.2605961121831104
-124.42280945757997 -11.456418276625204 2.248802017825513
-123.92211404728789 -11.427675746399533 2.236993142890542
-123.42141863699584 -11.398734637114263 2.2251699175882695
-122.92072322670376 -11.36959543705093 2.2133327721287923
-122.42002781641168 -11.340258634491025 2.2014821367221753
-121.91933240611961 -11.310724717716088 2.1896184415785225
-121.41863699582754 -11.280994175007631 2.177742116907913
-120.91794158553546 -11.251067494647156 2.165853592920419
-120.41724617524339 -11.220945164916191 2.1539532998261333
-119.91655076495132 -11.190627674096245 2.1420416678351355
-119.41585535465924 -11.160115510468867 2.1301191271575117
-118.91515994436718 -11.129409162315529 2.118186108003341
-118.41446453407511 -11.098509117917768 2.106243040582706
-117.91376912378303 -11.067415865557098 2.0942903551057004
-117.41307371349096 -11.036129893515028 2.082328481782403
-116.91237830319889 -11.004651690073093 2.0703578508228855
-116.41168289290681 -10.9729817435128 2.0583788924372453
-115.91098748261474 -10.941120542115652 2.0463920368355613
-115.41029207232268 -10.909068574163197 2.034397714227916
-114.9095966620306 -10.876826327936914 2.022396354824389
-114.40890125173853 -10.844394291718356 2.0103883888350733
-113.90820584144646 -10.811772953789006 1.9983742464700478
-113.40751043115438 -10.778962802430396 1.986354357939385
-112.90681502086231 -10.745964325924046 1.974329153453185
-112.40611961057024 -10.712778012551478 1.9622990632215271
-111.90542420027816 -10.679404350594186 1.9502645174544904
-111.4047287899861 -10.645843828333721 1.938225946362161
-110.90403337969401 -10.612096934051554 1.926183780154618
-110.40333796940195 -10.578164156029235 1.9141384490419477
-109.90264255910988 -10.54404598254828 1.9020903832342329
-109.4019471488178 -10.509742901890174 1.8900400129415595
-108.90125173852573 -10.475255402336483 1.877987768374007
-108.40055632823366 -10.440583972168678 1.8659340797416648
-107.89986091794158 -10.405729099668296 1.8538793772546052
-107.39916550764951 -10.370691273116872 1.841824091122925
-106.89847009735745 -10.33547098079588 1.829768651556696
-106.39777468706536 -10.300068710986867 1.8177134887660082
-105.8970792767733 -10.264484951971344 1.8056590329609443
-105.39638386648123 -10.228720192030824 1.7936057143515869
-104.89568845618915 -10.192774919446823 1.7815539631480186
-104.39499304589708 -10.156649622500861 1.7695042095603222
-103.89429763560501 -10.120344789474455 1.7574568837985802
-103.39360222531293 -10.083860908649111 1.745412416072886
-102.89290681502086 -10.047198468306352 1.7333712365933047
-102.3922114047288 -10.010357956727706 1.7213337755699365
-101.89151599443672 -9.973339862194674 1.7093004632128534
-101.39082058414465 -9.936144672988785 1.697271729732149
-100.89012517385257 -9.898772877391533 1.6852480053378949
-100.3894297635605 -9.861224963684467 1.6732297202401882
-99.88873435326843 -9.823501420149082 1.6612173046490974
-99.38803894297635 -9.785602735066899 1.6492111887747158
-98.88734353268428 -9.747529396719433 1.6372118028271225
-98.38664812239222 -9.709281893388205 1.6252195770164037
-97.88595271210013 -9.670860713354717 1.6132349415526457
-97.38525730180807 -9.632266344900518 1.601258326645924
-96.884561891516 -9.593499276307089 1.5892901625063283
-96.38386648122392 -9.554559995855964 1.5773308793439342
-95.88317107093185 -9.51544899182866 1.5653809073688352
-95.38247566063978 -9.476166752506689 1.5534406767911066
-94.8817802503477 -9.436713766171561 1.5415106178208349
-94.38108484005564 -9.397090521104811 1.5295911606681025
-93.88038942976357 -9.35729750558794 1.5176827355429923
-93.37969401947149 -9.317335207902463 1.5057857726555868
-92.87899860917942 -9.277204116329909 1.4939007022159794
-92.37830319888734 -9.236904719151791 1.4820279544342385
-91.87760778859527 -9.196437504649612 1.4701679595204575
-91.3769123783032 -9.155802961104914 1.4583211476847227
-90.87621696801112 -9.115001576799191 1.4464879491371059
-90.37552155771905 -9.074033840013978 1.4346687940876934
-89.87482614742699 -9.032900239030763 1.422864112746575
-89.3741307371349 -8.99160126213108 1.4110743353238229
-88.87343532684284 -8.95013739759646 1.3992998920295372
-88.37273991655077 -8.908509133708396 1.3875412130737865
-87.87204450625869 -8.866716958748423 1.3757987286666642
-87.37134909596662 -8.824761360998021 1.3640728690182422
-86.87065368567455 -8.782642828738783 1.352364064338614
-86.36995827538247 -8.740361850252139 1.3406727448378584
-85.8692628650904 -8.697918913819645 1.3289993407260619
-85.36856745479834 -8.655314507722832 1.3173442822133106
-84.86787204450626 -8.612549120243184 1.305707999509673
-84.36717663421419 -8.569623239662238 1.2940909228252424
-83.86648122392211 -8.526537354261531 1.2824934823701157
-83.36578581363004 -8.48329195232252 1.2709161083543543
-82.86509040333797 -8.439887522126764 1.259359230988048
-82.36439499304589 -8.396324551955797 1.2478232804812828
-81.86369958275382 -8.352603530091084 1.2363086870441558
-81.36300417246176 -8.308724944814156 1.224815880886714
-80.86230876216968 -8.264689284406554 1.2133452922190686
-80.36161335187761 -8.220497037149809 1.2018973512513058
-79.86091794158554 -8.176148691325363 1.190472488193494
-79.36022253129346 -8.131644735214802 1.1790711332557267
-78.85952712100139 -8.086985657099628 1.1676937166480756
-78.35883171070932 -8.042171945261341 1.1563406685806379
-77.85813630041724 -7.997204087981455 1.145012419263489
-77.35744089012518 -7.952082573541528 1.1337093989067257
-76.85674547983311 -7.906807890223018 1.1224320377204096
-76.35605006954103 -7.8613805263074745 1.1111807659146338
-75.85535465924896 -7.81580097007642 1.0999560136994775
-75.35465924895689 -7.770069709811342 1.0887582112850305
-74.85396383866481 -7.724187233793781 1.077587788881386
-74.35326842837274 -7.678154030305262 1.0664451766986092
-73.85257301808066 -7.631970587627276 1.0553308049467824
-73.3518776077886 -7.585637394041353 1.0442451038360134
-72.85118219749653 -7.539154937829007 1.0331885035763457
-72.35048678720445 -7.492523707271754 1.0221614343779082
-71.84979137691238 -7.4457441906511015 1.011164326450748
-71.34909596662031 -7.398816876248585 1.000197610004969
-70.84840055632823 -7.351742252345726 0.9892617152506469
-70.34770514603616 -7.304520807224019 0.9783570723978678
-69.8470097357441 -7.257153029164964 0.9674841116567003
-69.34631432545201 -7.209639406450105 0.9566432632372519
-68.84561891515995 -7.161980427360984 0.9458349573495946
-68.34492350486788 -7.114176580179073 0.9350596242038074
-67.8442280945758 -7.0662283531859025 0.9243176940099802
-67.34353268428373 -7.018136234663007 0.9136095969782028
-66.84283727399166 -6.969900712891867 0.90293576331854
-66.34214186369958 -6.921522276154018 0.8922966232410816
-65.84144645340751 -6.873001412730996 0.881692606955921
-65.34075104311543 -6.824338610904281 0.8711241446731337
-64.84005563282336 -6.775534358955408 0.8605916666028024
-64.3393602225313 -6.726589145165914 0.8500956029550168
-63.838664812239216 -6.677503457817263 0.8396363839398491
-63.33796940194715 -6.6282777851910275 0.829214439767403
-62.83727399165508 -6.5789126155686795 0.8188302006477366
-62.336578581363 -6.529408437231769 0.808484096790943
-61.83588317107093 -6.479765738461783 0.7981765584071121
-61.335187760778865 -6.429985007540278 0.7879080157063301
-60.834492350486784 -6.380066732748734 0.7776788988986654
-60.333796940194716 -6.3300114023686795 0.7674896381942149
-59.83310152990265 -6.2798195046816225 0.7573406638030471
-59.33240611961057 -6.229491527969113 0.7472324059352553
-58.8317107093185 -6.1790279605126095 0.7371652948009151
-58.33101529902643 -6.128429290593676 0.7271397606101304
-57.83031988873435 -6.077696006493827 0.7171562335729662
-57.329624478442284 -6.026828596494557 0.7072151438995087
-56.82892906815022 -5.975827548877387 0.6973169217998441
-56.328233657858135 -5.924693351923839 0.687461997484055
-55.82753824756607 -5.873426493915442 0.6776508011622278
-55.326842837273986 -5.822027463133697 0.6678837630444379
-54.82614742698192 -5.770496747860118 0.6581613133407751
-54.32545201668985 -5.718834836376228 0.6484838822613115
-53.82475660639777 -5.667042216963548 0.638851900016151
-53.3240611961057 -5.615119377903579 0.6292657968153657
-52.823365785813635 -5.563066807477856 0.619726002869031
-52.322670375521554 -5.510884993967888 0.6102329483872475
-51.82197496522949 -5.4585744256551685 0.6007870635800836
-51.321279554937405 -5.406135590821247 0.591388778657622
-50.82058414464535 -5.353568977747646 0.582038523829963
-50.31988873435327 -5.300875074715858 0.5727367293071752
-49.81919332406119 -5.248054370007406 0.5634838252993519
-49.318497913769136 -5.195107351903811 0.554280242016558
-48.817802503477054 -5.14203450868656 0.5451264096689046
-48.31710709318497 -5.088836328637203 0.5360227584664423
-47.81641168289292 -5.03551330003727 0.5269697186192823
-47.31571627260084 -4.982065911168252 0.5179677203375002
-46.81502086230876 -4.928494650311645 0.5090171938311714
-46.3143254520167 -4.8748000057490195 0.5001185693103858
-45.81363004172462 -4.820982465761869 0.4912722769852367
-45.31293463143254 -4.76704251863168 0.4824787470657925
-44.81223922114049 -4.712980652639981 0.47373840976213244
-44.311543810848406 -4.658797356068316 0.4650516952843462
-43.810848400556324 -4.604493117198171 0.4564190338425236
-43.31015299026427 -4.550068424311117 0.4478408556467437
-42.80945757997219 -4.495523765688585 0.43931759090708566
-42.30876216968011 -4.440859629612159 0.43084966983363926
-41.808066759388026 -4.386076504363327 0.4224375226364907
-41.30737134909597 -4.3311748782236315 0.41408157952570845
-40.80667593880389 -4.276155239474544 0.4057822707113894
-40.30598052851181 -4.221018076397609 0.39754002640361263
-39.80528511821976 -4.165763877274369 0.3893552768124644
-39.304589707927676 -4.110393130386296 0.38122845214802026
-38.803894297635594 -4.054906324014905 0.37315998262037
-38.30319888734354 -3.999303946441753 0.36515029843960334
-37.80250347705146 -3.9435864859483267 0.35719982981578524
-37.30180806675938 -3.887754430816141 0.34930900695901257
-36.801112656467325 -3.831808269326725 0.34147826007936444
-36.30041724617524 -3.7757484897616074 0.3337080193869342
-35.79972183588316 -3.7195755804022603 0.32599871509178313
-35.29902642559111 -3.6632900295302413 0.3183507774040224
-34.79833101529903 -3.606892325427051 0.3107646365337098
-34.297635605006946 -3.550382956374232 0.3032407226909457
-33.79694019471489 -3.4937624106532574 0.29577946608580574
-33.29624478442281 -3.4370311765456556 0.2883812969283761
-32.79554937413073 -3.38018974233297 0.28104664542873947
-32.294853963838676 -3.323238596296701 0.2737759417969785
-31.794158553546595 -3.266178226718335 0.2665696162431759
-31.293463143254513 -3.209009121879429 0.2594280989774178
-30.79276773296246 -3.151731770061499 0.2523518202097834
-30.29207232267038 -3.0943466595460443 0.24534121015036248
-29.791376912378297 -3.036854278614566 0.238396699009227
-29.290681502086244 -2.9792551155486358 0.23151871699647386
-28.789986091794162 -2.9215496586297114 0.22470769432217508
-28.28929068150208 -2.863738396139322 0.21796406119642042
-27.788595271210028 -2.805821816359039 0.21128824782929967
-27.287899860917946 -2.747800407570292 0.20468068443088483
-26.787204450625865 -2.6896746580546527 0.19814180121125502
-26.28650904033381 -2.63144505609365 0.19167202838051423
-25.78581363004173 -2.5731120899687703 0.1852717961487238
-25.28511821974965 -2.5146762479615 0.17894153472598417
-24.784422809457595 -2.456138018353439 0.17268167432236736
-24.283727399165514 -2.3974978894260026 0.16649264514795603
-23.783031988873432 -2.3387563494608052 0.1603748774128435
-23.28233657858135 -2.279913886739319 0.15432880132710536
-22.781641168289298 -2.22097098954303 0.14835484710082425
-22.280945757997216 -2.1619281461535103 0.14245344494409706
-21.780250347705135 -2.1027858448522316 0.13662502506698515
-21.27955493741308 -2.0435445739207516 0.1308700176795854
-20.778859527121 -1.9842048216405281 0.1251888529919769
-20.27816411682892 -1.9247670762931612 0.11958196121424947
-19.777468706536865 -1.8652318261600946 0.11404977255647863
-19.276773296244784 -1.8055995595228858 0.10859271722875774
-18.776077885952702 -1.745870764663021 0.10321122544115169
-18.27538247566065 -1.6860459298620576 0.09790572740376446
-17.774687065368568 -1.6261255434014679 0.09267665332667163
-17.273991655076486 -1.5661100935627807 0.08752443341994876
-16.773296244784433 -1.5060000686275252 0.08244949789369271
-16.27260083449235 -1.4457959568772303 0.07745227695797907
-15.77190542420027 -1.3854982465933823 0.0725332008228905
-15.271210013908217 -1.3251074260575102 0.06769269969850966
-14.770514603616135 -1.2646239835511288 0.06293120379492989
-14.269819193324054 -1.2040484073557671 0.058249143322223196
-13.769123783032 -1.1433811857528973 0.05364694849046869
-13.268428372739919 -1.082622807024105 0.04912504950977037
-12.767732962447838 -1.0217737594508627 0.04468387659019313
-12.267037552155784 -0.9608345313146707 0.040323859941826745
-11.766342141863703 -0.8998056108971006 0.036045429774746784
-11.265646731571621 -0.8386874864796248 0.03184901629905723
-10.764951321279568 -0.7774806463437862 0.027735049724826544
-10.264255910987487 -0.7161855787710572 0.023703960262126733
-9.763560500695405 -0.6548125173852567 0.019746856745479793
-9.262865090403352 -0.5926210013908224 0.016441641168289365
-8.76216968011127 -0.5288674547983316 0.014318942976356067
-8.261474269819189 -0.4655228094575794 0.01279781641168288
