Polar data for a18sm at Re = 294285.7142857143
Alpha (deg) Cl Cd
-180.0 -13.62912959055119 1.6906795045499776
-179.49930458970792 -13.632236780630393 1.6865002213374294
-178.99860917941587 -13.635102998003962 1.6822921702566291
-178.49791376912378 -13.637728273348706 1.6780555693493748
-177.9972183588317 -13.640112637341467 1.67379063665746
-177.49652294853965 -13.642256120659042 1.6694975902226843
-176.99582753824757 -13.644158753978264 1.6651766480868395
-176.4951321279555 -13.645820567975957 1.6608280282917254
-175.99443671766343 -13.647241593328932 1.6564519488791372
-175.49374130737135 -13.648421860714016 1.6520486278908693
-174.99304589707927 -13.64936140080804 1.6476182833687196
-174.49235048678722 -13.6500602442878 1.6431611333544835
-173.99165507649514 -13.650518421830146 1.6386773958899563
-173.49095966620305 -13.65073596411187 1.634167289016935
-172.990264255911 -13.650712901809815 1.6296310307772157
-172.48956884561892 -13.650449265600791 1.6250688392125956
-171.98887343532684 -13.649945086161637 1.620480932364869
-171.48817802503476 -13.649200394169142 1.6158675282758321
-170.9874826147427 -13.648215220300155 1.6112288449872838
-170.48678720445062 -13.646989595231478 1.606565100541014
-169.98609179415854 -13.645523549639943 1.601876512978826
-169.4853963838665 -13.64381711420237 1.5971633003425096
-168.9847009735744 -13.641870319595576 1.5924256806738657
-168.48400556328232 -13.639683196496392 1.5876638720146885
-167.98331015299027 -13.637255775581629 1.5828780924067751
-167.4826147426982 -13.634588087528105 1.5780685598919209
-166.9819193324061 -13.631680163012643 1.57323549251192
-166.48122392211405 -13.628532032712076 1.5683791083085699
-165.98052851182197 -13.625143727303215 1.5634996253236682
-165.4798331015299 -13.621515277462883 1.5585972615990102
-164.97913769123784 -13.617646713867892 1.5536722351763896
-164.47844228094576 -13.613538067195083 1.548724764097606
-163.97774687065368 -13.609189368121257 1.5437550664044548
-163.47705146036162 -13.604600647323242 1.5387633601387294
-162.97635605006954 -13.599771935477865 1.5337498633422295
-162.47566063977746 -13.594703263261945 1.5287147940567496
-161.9749652294854 -13.589394661352294 1.5236583703240858
-161.47426981919332 -13.58384616042574 1.5185808101860299
-160.97357440890124 -13.5780577911591 1.5134823316843868
-160.4728789986092 -13.572029584229206 1.5083631528609467
-159.9721835883171 -13.565761570312862 1.5032234917575082
-159.47148817802503 -13.559253780086905 1.4980635664158632
-158.97079276773297 -13.552506244228148 1.4928835948778132
-158.4700973574409 -13.545518993413413 1.4876837951851516
-157.9694019471488 -13.538292058319517 1.4824643853796728
-157.46870653685676 -13.530825469623284 1.4772255835031767
-156.96801112656468 -13.52311925800154 1.4719676075974575
-156.4673157162726 -13.515173454131094 1.4666906757043106
-155.96662030598054 -13.506988088688786 1.461395005865532
-155.46592489568846 -13.498563192351419 1.4560808161229217
-154.96522948539638 -13.489898795795824 1.4507483245182704
-154.46453407510432 -13.480994929698824 1.445397749093377
-153.96383866481224 -13.471851624737223 1.4400293078900357
-153.46314325452016 -13.462468911587859 1.4346432189500464
-152.9624478442281 -13.452846820927547 1.4292397003152009
-152.46175243393603 -13.442985383433108 1.423818970027296
-151.96105702364395 -13.43288462978137 1.4183812461281318
-151.4603616133519 -13.422544590649132 1.4129267466595006
-150.9596662030598 -13.411965296713248 1.4074556896632004
-150.45897079276773 -13.401146778650514 1.4019682931810222
-149.95827538247568 -13.390089067137762 1.3964647752547719
-149.4575799721836 -13.378792192851801 1.3909453539262358
-148.9568845618915 -13.367256186469469 1.3854102472372136
-148.45618915159943 -13.355481078667577 1.3798596732295052
-147.95549374130738 -13.343466900122944 1.3742938499449031
-147.4547983310153 -13.331213681512398 1.3687129954252035
-146.95410292072324 -13.318721453512754 1.3631173277122008
-146.45340751043116 -13.305990246800832 1.357507064847693
-145.95271210013908 -13.29302009205346 1.3518824248734762
-145.452016689847 -13.27981101994746 1.3462436258313475
-144.95132127955495 -13.266363061159645 1.3405908857631021
-144.45062586926286 -13.252676246366835 1.3349244227105355
-143.94993045897078 -13.238750606245851 1.3292444547154427
-143.44923504867873 -13.224586171473526 1.3235511998196228
-142.94853963838665 -13.210182972726674 1.3178448760648735
-142.44784422809457 -13.195541040682116 1.312125701492986
-141.9471488178025 -13.180660406016674 1.3063938941457551
-141.44645340751043 -13.165541099407157 1.30064967206498
-140.94575799721835 -13.150183151530399 1.2948932532924604
-140.44506258692627 -13.134586593063226 1.2891248558699862
-139.94436717663422 -13.118751454682442 1.283344697839357
-139.44367176634213 -13.102677767064886 1.27755299724237
-138.94297635605005 -13.086365560887359 1.271749972120817
-138.442280945758 -13.0698148668267 1.2659358405164949
-137.94158553546592 -13.053025715559723 1.2601108204712044
-137.44089012517384 -13.035998137763247 1.2542751300267372
-136.94019471488178 -13.018732164114095 1.2484289872248922
-136.4394993045897 -13.001227825289096 1.2425726101074601
-135.93880389429762 -12.983485151965048 1.2367062167162444
-135.43810848400557 -12.9655041748188 1.2308300250930357
-134.9374130737135 -12.94728492452715 1.2249442532796322
-134.4367176634214 -12.928827431766923 1.2190491193178281
-133.93602225312935 -12.910131727214964 1.213144841249425
-133.43532684283727 -12.89119784154807 1.2072316371162137
-132.9346314325452 -12.872025805443062 1.2013097249599904
-132.43393602225314 -12.852615649576773 1.195379322822553
-131.93324061196105 -12.832967404626007 1.1894406487456997
-131.43254520166897 -12.8130811012676 1.1834939207712192
-130.93184979137692 -12.792956770178375 1.1775393569409185
-130.43115438108484 -12.772594442035139 1.171577175296584
-129.93045897079276 -12.751994147514733 1.1656075938800181
-129.4297635605007 -12.731155917293954 1.1596308307330099
-128.92906815020862 -12.71007978204964 1.1536471038973626
-128.42837273991654 -12.688765772458602 1.1476566314148706
-127.92767732962449 -12.667213919197671 1.1416596313273266
-127.4269819193324 -12.645424252943652 1.1356563216765294
-126.92628650904032 -12.623396804373385 1.1296469205042743
-126.42559109874827 -12.60113160416368 1.123631645852361
-125.92489568845619 -12.578628682991365 1.1176107157625785
-125.42420027816411 -12.55588807153325 1.1115843482767285
-124.92350486787205 -12.532909800466165 1.1055527614366052
-124.42280945757997 -12.509693900466925 1.099516173284003
-123.92211404728789 -12.486240402212363 1.0934748018607237
-123.42141863699584 -12.46254933637928 1.087428865208556
-122.92072322670376 -12.43862073364452 1.0813785813693033
-122.42002781641168 -12.414454624684883 1.0753241683847548
-121.91933240611961 -12.390051040177202 1.0692658442967082
-121.41863699582754 -12.365410010798293 1.0632038271469653
-120.91794158553546 -12.340531567224978 1.057138334977315
-120.41724617524339 -12.315415740134085 1.0510695858295587
-119.91655076495132 -12.290062560202433 1.0449977977454874
-119.41585535465924 -12.26447205810683 1.0389231887669044
-118.91515994436718 -12.238644264524108 1.0328459769355987
-118.41446453407511 -12.212579210131082 1.0267663802933664
-117.91376912378303 -12.18627692560458 1.020684616882011
-117.41307371349096 -12.159737441621427 1.014600904743323
-116.91237830319889 -12.132960788858426 1.0085154619190955
-116.41168289290681 -12.105946997992419 1.002428506451135
-115.91098748261474 -12.07869609970021 0.9963402563812253
-115.41029207232268 -12.051208124658633 0.9902509297511713
-114.9095966620306 -12.023483103544496 0.9841607446027641
-114.40890125173853 -11.995521067034634 0.9780699189778034
-113.90820584144646 -11.967322045805854 0.9719786709180852
-113.40751043115438 -11.938886070534988 0.9658872184653987
-112.90681502086231 -11.910213171898846 0.9597957796615489
-112.40611961057024 -11.881303380574266 0.9537045725483267
-111.90542420027816 -11.85215672723805 0.9476138151675318
-111.4047287899861 -11.822773242567038 0.9415237255609569
-110.90403337969401 -11.793152957238032 0.9354345217704015
-110.40333796940195 -11.763295901927865 0.9293464218376585
-109.90264255910988 -11.73320210731335 0.9232596438045239
-109.4019471488178 -11.702871604071316 0.9171744057127956
-108.90125173852573 -11.672304422878579 0.91109092560427
-108.40055632823366 -11.64150059441197 0.9050094215207413
-107.89986091794158 -11.610460149348288 0.8989301115040075
-107.39916550764951 -11.57918311836438 0.8928532135958648
-106.89847009735745 -11.547669532137046 0.8867789458381058
-106.39777468706536 -11.51591942134311 0.8807075262725285
-105.8970792767733 -11.483932816659411 0.8746391729409325
-105.39638386648123 -11.451709748762752 0.8685741038851088
-104.89568845618915 -11.419250248329963 0.862512537146857
-104.39499304589708 -11.386554346037851 0.8564546907679716
-103.89429763560501 -11.353622072563265 0.8504007827902506
-103.39360222531293 -11.320453458582993 0.8443510312554864
-102.89290681502086 -11.287048534773877 0.8383056542054771
-102.3922114047288 -11.253407331812735 0.8322648696820206
-101.89151599443672 -11.219529880376381 0.8262288957269096
-101.39082058414465 -11.185416211141632 0.8201979503819438
-100.89012517385257 -11.151066354785332 0.8141722516889157
-100.3894297635605 -11.116480341984275 0.8081520176896216
-99.88873435326843 -11.081658203415312 0.8021374664258613
-99.38803894297635 -11.046599969755231 0.796128815939429
-98.88734353268428 -11.011305671680876 0.7901262842721174
-98.38664812239222 -10.975775339869049 0.7841300894657298
-97.88595271210013 -10.940009004996586 0.7781404495620553
-97.38525730180807 -10.904006697740318 0.7721575826028936
-96.884561891516 -10.867768448777039 0.7661817066300408
-96.38386648122392 -10.831294288783578 0.7602130396852896
-95.88317107093185 -10.794584248436774 0.7542517998104415
-95.38247566063978 -10.757638358413427 0.7482982050472909
-94.8817802503477 -10.72045664939036 0.7423524734376269
-94.38108484005564 -10.683039152044412 0.7364148230232562
-93.88038942976357 -10.645385897052396 0.7304854718459698
-93.37969401947149 -10.607496915091115 0.7245646379475638
-92.87899860917942 -10.569372236837406 0.7186525393698343
-92.37830319888734 -10.531011892968092 0.7127493941545758
-91.87760778859527 -10.492415914159988 0.7068554203435898
-91.3769123783032 -10.453584331089917 0.7009708359786689
-90.87621696801112 -10.414517174434703 0.6950958591016075
-90.37552155771905 -10.375214474871168 0.6892307077542018
-89.87482614742699 -10.335676263076113 0.6833755999782515
-89.3741307371349 -10.295902569726383 0.677530753815551
-88.87343532684284 -10.255893425498794 0.6716963873078946
-88.37273991655077 -10.21564886107016 0.6658727184970804
-87.87204450625869 -10.175168907117307 0.6600599654249045
-87.37134909596662 -10.13445359431704 0.6542583461331578
-86.87065368567455 -10.09350295334622 0.6484680786636506
-86.36995827538247 -10.052317014881627 0.6426893810581596
-85.8692628650904 -10.010895809600104 0.636922471358497
-85.36856745479834 -9.969239368178467 0.6311675676064518
-84.86787204450626 -9.927347721293518 0.6254248878438201
-84.36717663421419 -9.885220899622109 0.6196946501124
-83.86648122392211 -9.842858933841054 0.6139770724539858
-83.36578581363004 -9.800261854627163 0.6082723729103737
-82.86509040333797 -9.757429692657258 0.6025807695233599
-82.36439499304589 -9.714362478608162 0.5969024803347441
-81.86369958275382 -9.671060243156699 0.5912377233863172
-81.36300417246176 -9.627523016979683 0.5855867167198735
-80.86230876216968 -9.583750830753946 0.5799496783772128
-80.36161335187761 -9.539743715156316 0.5743268264001383
-79.86091794158554 -9.495501700863574 0.5687183788304356
-79.36022253129346 -9.451024818552586 0.5631245537099027
-78.85952712100139 -9.406313098900153 0.5575455690803391
-78.35883171070932 -9.36136657258309 0.5519816429835359
-77.85813630041724 -9.316185270278236 0.5464329934612945
-77.35744089012518 -9.270769222662405 0.5408998385554146
-76.85674547983311 -9.225118460412407 0.5353823963076746
-76.35605006954103 -9.17923301420507 0.5298808847598903
-75.85535465924896 -9.133112914717213 0.5243955219538489
-75.35465924895689 -9.08675819262567 0.5189265259313501
-74.85396383866481 -9.04016887860725 0.5134741147341814
-74.35326842837274 -8.993345003338778 0.5080385064041476
-73.85257301808066 -8.946286597497053 0.5026199189830415
-73.3518776077886 -8.898993691758943 0.4972185705126645
-72.85118219749653 -8.851466316801226 0.49183467903480216
-72.35048678720445 -8.803704503300747 0.4864684625912613
-71.84979137691238 -8.755708281934314 0.48112013922382924
-71.34909596662031 -8.707477683378752 0.47578992697430744
-70.84840055632823 -8.659012738310881 0.4704780438844921
-70.34770514603616 -8.610313477407534 0.4651847079961794
-69.8470097357441 -8.56137993134551 0.4599101373511566
-69.34631432545201 -8.512212130801647 0.45465454999123056
-68.84561891515995 -8.46281010645276 0.44941816395819745
-68.34492350486788 -8.413173888975674 0.44420119729384455
-67.8442280945758 -8.363303509047203 0.43900386803997515
-67.34353268428373 -8.313198997344177 0.4338263942383872
-66.84283727399166 -8.262860384543412 0.428668993930868
-66.34214186369958 -8.212287701321717 0.4235318851592208
-65.84144645340751 -8.161480978355929 0.41841528596524
-65.34075104311543 -8.11044024632287 0.4133194143907183
-64.84005563282336 -8.05916553589935 0.4082444884774553
-64.3393602225313 -8.007656877762198 0.4031907262672473
-63.838664812239216 -7.955914302588229 0.3981583458018886
-63.33796940194715 -7.903937841054275 0.39314756512317894
-62.83727399165508 -7.851727523837144 0.3881586022729092
-62.336578581363 -7.799283381613665 0.38319167529287734
-61.83588317107093 -7.7466054450606405 0.3782470022248795
-61.335187760778865 -7.693693744854936 0.37332480111072075
-60.834492350486784 -7.6405483116733235 0.3684252899921777
-60.333796940194716 -7.587169176192648 0.36354868691106257
-59.83310152990265 -7.533556369089733 0.3586952099091679
-59.33240611961057 -7.479709921041393 0.3538650770282846
-58.8317107093185 -7.4256298627244375 0.3490585063102142
-58.33101529902643 -7.37131622481571 0.34427571579674743
-57.83031988873435 -7.31676903799202 0.33951692352968943
-57.329624478442284 -7.261988332930183 0.3347823475508346
-56.82892906815022 -7.206974140307028 0.3300722059019666
-56.328233657858135 -7.151726490799386 0.32538671662489416
-55.82753824756607 -7.096245415084044 0.32072609776140804
-55.326842837273986 -7.040530943837861 0.316090567353308
-54.82614742698192 -6.984583107737644 0.3114803434423902
-54.32545201668985 -6.928401937460197 0.30689564407043834
-53.82475660639777 -6.871987463682369 0.30233668727926644
-53.3240611961057 -6.8153397170809695 0.29780369111065996
-52.823365785813635 -6.7584587283328075 0.29329687360641865
-52.322670375521554 -6.70134452811472 0.28881645280834045
-51.82197496522949 -6.643997147103522 0.28436264675821443
-51.321279554937405 -6.58641661597603 0.2799356734978403
-50.82058414464535 -6.528602965409074 0.2755357510690196
-50.31988873435327 -6.470556226079469 0.2711630975135414
-49.81919332406119 -6.412276428664053 0.2668179308732054
-49.318497913769136 -6.353763603839613 0.2625004691898042
-48.817802503477054 -6.295017782283 0.25821093050513755
-48.31710709318497 -6.236038994671001 0.25394953286099986
-47.81641168289292 -6.17682727168049 0.24971649429918552
-47.31571627260084 -6.117382643988239 0.24551203286149426
-46.81502086230876 -6.057705142271099 0.24133636658972046
-46.3143254520167 -5.997794797205866 0.23718971352565854
-45.81363004172462 -5.937651639469389 0.23307229171110821
-45.31293463143254 -5.8772756997384645 0.22898431918786388
-44.81223922114049 -5.816667008689936 0.22492601399771994
-44.311543810848406 -5.755825597000597 0.22089759418247257
-43.810848400556324 -5.694751495347279 0.2168992777839197
-43.31015299026427 -5.633444734406832 0.2129312828438611
-42.80945757997219 -5.571905344856037 0.20899382740408223
-42.30876216968011 -5.510133357371724 0.20508712950638996
-41.808066759388026 -5.4481288026307295 0.20121140719257158
-41.30737134909597 -5.38589171130987 0.19736687850443213
-40.80667593880389 -5.323422114085946 0.1935537614837607
-40.30598052851181 -5.260720041635795 0.18977227417236053
-39.80528511821976 -5.197785524636276 0.18602263461202073
-39.304589707927676 -5.1346185937641335 0.18230506084453568
-38.803894297635594 -5.071219279696225 0.17861977091171044
-38.30319888734354 -5.007587613109396 0.17496698285533407
-37.80250347705146 -4.943723624680426 0.1713469147172063
-37.30180806675938 -4.879627345086152 0.16775978453911622
-36.801112656467325 -4.815298805003411 0.16420581036287418
-36.30041724617524 -4.750738035109005 0.16068521023026394
-35.79972183588316 -4.685945066079749 0.1571982021830799
-35.29902642559111 -4.620919928592495 0.15374500426312887
-34.79833101529903 -4.55566265332403 0.15032583451219816
-34.297635605006946 -4.490173270951185 0.14694091097208928
-33.79694019471489 -4.424451812150802 0.14359045168459839
-33.29624478442281 -4.358498307599677 0.14027467469151456
-32.79554937413073 -4.292312787974633 0.13699379803464284
-32.294853963838676 -4.2258952839525135 0.13374803975577232
-31.794158553546595 -4.159245826210099 0.13053761789670448
-31.293463143254513 -4.092364445424248 0.12736275049923018
-30.79276773296246 -4.025251172271768 0.12422365560514914
-30.29207232267038 -3.957906037429484 0.12112055125625931
-29.791376912378297 -3.890329071574196 0.11805365549435154
-29.290681502086244 -3.8225203053827626 0.11502318636122377
-28.789986091794162 -3.7544797695319714 0.11202936189867396
-28.28929068150208 -3.6862074946986523 0.10907240014849828
-27.788595271210028 -3.6177035115596494 0.10615251915249291
-27.287899860917946 -3.548967850791743 0.10326993695244513
-26.787204450625865 -3.48000054307177 0.10042487159016178
-26.28650904033381 -3.4108016190765964 0.09761754110744258
-25.78581363004173 -3.3413711094829734 0.09484816354606951
-25.28511821974965 -3.2717090449677455 0.09211695694784938
-24.784422809457595 -3.201815456207764 0.08942413935457305
-24.283727399165514 -3.1316903738798016 0.08676992880803491
-23.783031988873432 -3.06133382866071 0.08415454335004002
-23.28233657858135 -2.9907458512273193 0.0815782010223739
-22.781641168289298 -2.9199264722564235 0.07904111986684159
-22.280945757997216 -2.848875722424853 0.07654351792523573
-21.780250347705135 -2.7775936324094372 0.07408561323934715
-21.27955493741308 -2.7060802328869924 0.07166762385098091
-20.778859527121 -2.634335554534327 0.06928976780192786
-20.27816411682892 -2.562359628028285 0.06695226313398772
-19.777468706536865 -2.4901524840456686 0.06465532788894957
-19.276773296244784 -2.417714153263307 0.062399180108618446
-18.776077885952702 -2.3450446663580164 0.060184037834781656
-18.27538247566065 -2.2721440540066267 0.05801011910923892
-17.774687065368568 -2.1990123468859535 0.05587764197379175
-17.273991655076486 -2.1256495756728127 0.0537868244702292
-16.773296244784433 -2.052055771044027 0.051737884640347453
-16.27260083449235 -1.9782309636764337 0.049731040525946235
-15.77190542420027 -1.9041751842468342 0.04776651016882172
-15.271210013908217 -1.8298884634320514 0.04584451161077008
-14.770514603616135 -1.7553708319089152 0.043965262893578605
-14.269819193324054 -1.6806223203542485 0.04212898205905946
-13.769123783032 -1.605642959444853 0.04033588714899283
-13.268428372739919 -1.5304327798575654 0.03858619620518555
-12.767732962447838 -1.454991812269209 0.03688012726943202
-12.267037552155784 -1.3793200873565992 0.03521789838351952
-11.766342141863703 -1.303417635796552 0.03359972758925489
-11.265646731571621 -1.227284488265897 0.03202583292843253
-10.764951321279568 -1.1509206754414576 0.030496432442845056
-10.264255910987487 -1.0743262280000492 0.02901174417428687
-9.763560500695405 -0.9975011766184876 0.02757198616455947
-9.262865090403352 -0.9204455519735815 0.026177376455453705
-8.76216968011127 -0.8431593847421963 0.024828133088771076
