Polar data for a18sm at Re = 147241.37931034484
Alpha (deg) Cl Cd
-180.0 -6.810617417118207 2.193559735282551
-179.49930458970792 -6.797607872635913 2.1905569672873
-178.99860917941587 -6.784472162612387 2.1875177712000777
-178.49791376912378 -6.771211087555647 2.1844423062563916
-177.9972183588317 -6.7578254479737065 2.181330731691749
-177.49652294853965 -6.744316044374573 2.1781832067416573
-176.99582753824757 -6.7306836772662475 2.1749998906416277
-176.4951321279555 -6.716929147156764 2.171780942627164
-175.99443671766343 -6.703053254554119 2.1685265219337753
-175.49374130737135 -6.689056799966325 2.16523678779697
-174.99304589707927 -6.674940583901394 2.1619118994522557
-174.49235048678722 -6.660705406867342 2.1585520161351406
-173.99165507649514 -6.646352069372176 2.155157297081132
-173.49095966620305 -6.6318813719239085 2.151727901525737
-172.990264255911 -6.617294115030544 2.148263988704464
-172.48956884561892 -6.60259109920011 2.144765717852821
-171.98887343532684 -6.587773124940602 2.1412332482063174
-171.48817802503476 -6.572840992760037 2.1376667390004584
-170.9874826147427 -6.5577955031664334 2.1340663494707544
-170.48678720445062 -6.5426374566677925 2.130432238852708
-169.98609179415854 -6.527367653772133 2.1267645663818335
-169.4853963838665 -6.511986894987453 2.1230634912936353
-168.9847009735744 -6.496495980821782 2.1193291728236208
-168.48400556328232 -6.480895711783122 2.1155617702073
-167.98331015299027 -6.46518688837949 2.111761442680181
-167.4826147426982 -6.449370311118882 2.107928349477767
-166.9819193324061 -6.4334467805093265 2.104062649835571
-166.48122392211405 -6.417417097058829 2.1001645029890987
-165.98052851182197 -6.401282061275401 2.0962340681738576
-165.4798331015299 -6.385042473667044 2.092271504625356
-164.97913769123784 -6.368699134741787 2.088276971579101
-164.47844228094576 -6.352252845007632 2.0842506282706026
-163.97774687065368 -6.335704404972594 2.080192633935366
-163.47705146036162 -6.319054615144671 2.0761031478088983
-162.97635605006954 -6.302304276031899 2.071982329126711
-162.47566063977746 -6.285454188142266 2.0678303371243114
-161.9749652294854 -6.268505151983804 2.063647331037205
-161.47426981919332 -6.251457968064498 2.059433470100897
-160.97357440890124 -6.234313436892377 2.0551889135509036
-160.4728789986092 -6.2170723589754555 2.0509138206227266
-159.9721835883171 -6.199735534821739 2.0466083505518737
-159.47148817802503 -6.182303764939233 2.042272662573855
-158.97079276773297 -6.1647778498359695 2.0379069159241787
-158.4700973574409 -6.1471585900199255 2.033511269838349
-157.9694019471488 -6.129446785999155 2.0290858835518764
-157.46870653685676 -6.111643238281628 2.024630916300267
-156.96801112656468 -6.093748747375384 2.0201465273190324
-156.4673157162726 -6.075764113788422 2.0156328758436777
-155.96662030598054 -6.057690138028752 2.011090121109709
-155.46592489568846 -6.039527620604398 2.006518422352638
-154.96522948539638 -6.021277362023353 2.0019179388079706
-154.46453407510432 -6.002940162793648 1.9972888297112117
-153.96383866481224 -5.984516823423283 1.9926312542978752
-153.46314325452016 -5.966008144420263 1.987945371803465
-152.9624478442281 -5.9474149262926215 1.9832313414634901
-152.46175243393603 -5.928737969548342 1.9784893225134563
-151.96105702364395 -5.9099780746954576 1.973719474188872
-151.4603616133519 -5.891136042241966 1.9689219557252489
-150.9596662030598 -5.8722126726958965 1.9640969263580927
-150.45897079276773 -5.85320876656524 1.9592445453229066
-149.95827538247568 -5.834125124358012 1.9543649718552059
-149.4575799721836 -5.814962546582231 1.9494583651904926
-148.9568845618915 -5.795721833745906 1.9445248845642762
-148.45618915159943 -5.776403786357049 1.9395646892120684
-147.95549374130738 -5.757009204923667 1.9345779383693713
-147.4547983310153 -5.737538889953781 1.9295647912716933
-146.95410292072324 -5.717993641955401 1.9245254071545463
-146.45340751043116 -5.698374261436518 1.919459945253436
-145.95271210013908 -5.678681548905162 1.9143685648038662
-145.452016689847 -5.658916304869349 1.9092514250413533
-144.95132127955495 -5.639079329837072 1.9041086852013993
-144.45062586926286 -5.619171424316365 1.898940504519511
-143.94993045897078 -5.599193388815214 1.8937470422311982
-143.44923504867873 -5.57914602384165 1.8885284575719676
-142.94853963838665 -5.559030129903688 1.883284909777333
-142.44784422809457 -5.538846507509314 1.8780165580827954
-141.9471488178025 -5.518595957166566 1.8727235617238633
-141.44645340751043 -5.49827927938343 1.867406079936045
-140.94575799721835 -5.477897274667944 1.8620642719548515
-140.44506258692627 -5.457450743528101 1.8566982970157866
-139.94436717663422 -5.436940486471917 1.8513083143543614
-139.44367176634213 -5.416367304007414 1.8458944832060815
-138.94297635605005 -5.395731996642587 1.8404569628064553
-138.442280945758 -5.375035364885454 1.8349959123909911
-137.94158553546592 -5.354278209244027 1.8295114911951946
-137.44089012517384 -5.333461330226312 1.8240038584545768
-136.94019471488178 -5.312585528340334 1.818473173404645
-136.4394993045897 -5.29165160409409 1.8129195952809034
-135.93880389429762 -5.270660357995604 1.8073432833188636
-135.43810848400557 -5.249612590552877 1.8017443967540323
-134.9374130737135 -5.228509102273923 1.796123094821917
-134.4367176634214 -5.207350693666752 1.7904795367580257
-133.93602225312935 -5.186138165239376 1.7848138817978663
-133.43532684283727 -5.164872317499819 1.7791262891769477
-132.9346314325452 -5.143553950956074 1.7734169181307748
-132.43393602225314 -5.122183866116158 1.7676859278948578
-131.93324061196105 -5.100762863488084 1.761933477704704
-131.43254520166897 -5.079291743579864 1.7561597267958218
-130.93184979137692 -5.057771306899513 1.7503648344037186
-130.43115438108484 -5.036202353955032 1.7445489597639001
-129.93045897079276 -5.014585685254451 1.7387122621118773
-129.4297635605007 -4.992922101305757 1.7328549006831568
-128.92906815020862 -4.971212402616965 1.726977034713246
-128.42837273991654 -4.94945738969612 1.721078823437655
-127.92767732962449 -4.927657863051186 1.7151604260918851
-127.4269819193324 -4.905814623190208 1.7092220019114535
-126.92628650904032 -4.883928470621184 1.7032637101318595
-126.42559109874827 -4.862000205852125 1.697285709988617
-125.92489568845619 -4.840030629391043 1.6912881607172314
-125.42420027816411 -4.818020541745957 1.6852712215532095
-124.92350486787205 -4.795970743424865 1.6792350517320604
-124.42280945757997 -4.773882034935779 1.6731798104892917
-123.92211404728789 -4.751755216786739 1.6671056570604132
-123.42141863699584 -4.729591089485721 1.6610127506809274
-122.92072322670376 -4.707390453540752 1.6549012505863485
-122.42002781641168 -4.685154109459843 1.6487713160121789
-121.91933240611961 -4.662882857750999 1.6426231061939311
-121.41863699582754 -4.640577498922246 1.6364567803671093
-120.91794158553546 -4.618238833481568 1.6302724977672198
-120.41724617524339 -4.595867661937005 1.6240704176297782
-119.91655076495132 -4.573464784796554 1.6178506991902848
-119.41585535465924 -4.551031002568228 1.6116135016842505
-118.91515994436718 -4.528567115760046 1.6053589843471812
-118.41446453407511 -4.506073924880004 1.5990873064145885
-117.91376912378303 -4.48355223043613 1.5927986271219765
-117.41307371349096 -4.461002832936428 1.5864931057048544
-116.91237830319889 -4.43842653288891 1.5801709013987295
-116.41168289290681 -4.415824130801587 1.5738321734391103
-115.91098748261474 -4.393196427182458 1.567477081061505
-115.41029207232268 -4.37054422253957 1.5611057835014204
-114.9095966620306 -4.347868317380884 1.5547184399943645
-114.40890125173853 -4.325169512214449 1.548315209775846
-113.90820584144646 -4.3024486075482695 1.541896252081371
-113.40751043115438 -4.2797064038903425 1.5354617261464483
-112.90681502086231 -4.2569437017487015 1.5290117912065895
-112.40611961057024 -4.234161301631344 1.5225466064972923
-111.90542420027816 -4.211360004046275 1.5160663312540759
-111.4047287899861 -4.188540609501528 1.509571124712443
-110.90403337969401 -4.165703918505086 1.5030611461078986
-110.40333796940195 -4.142850731564996 1.4965365546759564
-109.90264255910988 -4.119981849189221 1.4899975096521192
-109.4019471488178 -4.0970980718858225 1.4834441702718972
-108.90125173852573 -4.074200200162776 1.4768766957707988
-108.40055632823366 -4.051289034528116 1.4702952453843323
-107.89986091794158 -4.028365375489839 1.463699978347999
-107.39916550764951 -4.005430023555958 1.4570910538973159
-106.89847009735745 -3.982483779234491 1.4504686312677861
-106.39777468706536 -3.9595274430334357 1.4438328696949163
-105.8970792767733 -3.9365618154608257 1.4371839284142183
-105.39638386648123 -3.9135876970246657 1.4305219666612004
-104.89568845618915 -3.890605888232946 1.4238471436713602
-104.39499304589708 -3.8676171895937146 1.4171596186802187
-103.89429763560501 -3.8446224016149473 1.410459550923277
-103.39360222531293 -3.8216223248046775 1.403747099636045
-102.89290681502086 -3.7986177596709028 1.3970224240540279
-102.3922114047288 -3.775609506721642 1.3902856834127337
-101.89151599443672 -3.7525983664649076 1.3835370369476745
-101.39082058414465 -3.729585139408704 1.3767766438943532
-100.89012517385257 -3.70657062606105 1.3700046634882816
-100.3894297635605 -3.6835556269299503 1.363221254964963
-99.88873435326843 -3.6605409425234314 1.356426577559909
-99.38803894297635 -3.637527373349491 1.3496207905086297
-98.88734353268428 -3.6145157199161404 1.3428040530466248
-98.38664812239222 -3.591506782731399 1.3359765244094077
-97.88595271210013 -3.5685013623032718 1.329138363832487
-97.38525730180807 -3.545500259139763 1.3222897305513672
-96.884561891516 -3.5225042737489063 1.3154307838015604
-96.38386648122392 -3.499514206638685 1.3085616828185678
-95.88317107093185 -3.476530858317132 1.3016825868379047
-95.38247566063978 -3.4535550292922523 1.2947936550950743
-94.8817802503477 -3.4305875200720437 1.287895046825583
-94.38108484005564 -3.4076291311645464 1.2809869212649445
-93.88038942976357 -3.3846806630777437 1.2740694376486636
-93.37969401947149 -3.361742916319655 1.2671427552122416
-92.87899860917942 -3.338816691398313 1.2602070331911974
-92.37830319888734 -3.315902788821701 1.2532624308210323
-91.87760778859527 -3.293002009097846 1.246309107337258
-91.3769123783032 -3.270115152734752 1.2393472219753796
-90.87621696801112 -3.247243020240431 1.2323769339709034
-90.37552155771905 -3.2243864121228953 1.2253984025593396
-89.87482614742699 -3.2015461288901563 1.2184117869761983
-89.3741307371349 -3.178722971050233 1.211417246456979
-88.87343532684284 -3.1559177391111164 1.2044149402372006
-88.37273991655077 -3.1331312335808463 1.1974050275523627
-87.87204450625869 -3.1103642549674135 1.1903876676379788
-87.37134909596662 -3.0876176037788157 1.1833630197295448
-86.87065368567455 -3.0648920805231072 1.176331243062587
-86.36995827538247 -3.0421884857082717 1.169292496872601
-85.8692628650904 -3.019507619842321 1.1622469403950937
-85.36856745479834 -2.996850283433274 1.1551947328655838
-84.86787204450626 -2.9742172769891355 1.1481360335195656
-84.36717663421419 -2.9516094010179175 1.1410710015925545
-83.86648122392211 -2.929027456027639 1.1339997963200605
-83.36578581363004 -2.9064722425263114 1.1269225769375832
-82.86509040333797 -2.883944561021926 1.1198395026806363
-82.36439499304589 -2.8614452120225153 1.112750732784728
-81.86369958275382 -2.8389749960360775 1.1056564264853648
-81.36300417246176 -2.8165347135706456 1.0985567430180516
-80.86230876216968 -2.7941251651341816 1.0914518416182968
-80.36161335187761 -2.7717471512347758 1.0843418815216175
-79.86091794158554 -2.7494014723803617 1.0772270219635096
-79.36022253129346 -2.727088929079001 1.0701074221794868
-78.85952712100139 -2.7048103218386843 1.062983241405054
-78.35883171070932 -2.682566451167409 1.0558546388757228
-77.85813630041724 -2.6603581175732303 1.0487217738269983
-77.35744089012518 -2.638186121564131 1.0415848054943904
-76.85674547983311 -2.6160512636481017 1.0344438931134003
-76.35605006954103 -2.5939543443332043 1.0272991959195472
-75.85535465924896 -2.5718961641273865 1.0201508731483269
-75.35465924895689 -2.5498775235387243 1.0129990840352583
-74.85396383866481 -2.527899223075208 1.0058439878158427
-74.35326842837274 -2.5059620632448287 0.9986857437255867
-73.85257301808066 -2.484066844555598 0.9915245110000022
-73.3518776077886 -2.4622143675155628 0.9843604488745974
-72.85118219749653 -2.4404054326327 0.9771937165848736
-72.35048678720445 -2.4186408404150215 0.9700244733663481
-71.84979137691238 -2.3969213913705674 0.9628528784545185
-71.34909596662031 -2.3752478860073283 0.955679091084902
-70.84840055632823 -2.353621124833323 0.9485032704929999
-70.34770514603616 -2.332041908356557 0.9413255759143275
-69.8470097357441 -2.310511037085027 0.9341461665843791
-69.34631432545201 -2.289029311526774 0.9269652017386771
-68.84561891515995 -2.2675975321898023 0.9197828406127211
-68.34492350486788 -2.2462164995820957 0.9125992424420228
-67.8442280945758 -2.2248870142117085 0.9054145664620836
-67.34353268428373 -2.2036098765866243 0.8982289719084242
-66.84283727399166 -2.182385887214855 0.891042618016537
-66.34214186369958 -2.1612158466044122 0.8838556640219355
-65.84144645340751 -2.1401005552633365 0.8766682691601335
-65.34075104311543 -2.119040813699583 0.869480592666634
-64.84005563282336 -2.098037422421213 0.8622927937769418
-64.3393602225313 -2.077091181936231 0.855105031726574
-63.838664812239216 -2.0562028927526073 0.8479174657510267
-63.33796940194715 -2.035373355378417 0.8407302550858151
-62.83727399165508 -2.014603370321622 0.8335435589664477
-62.336578581363 -1.9938937380902417 0.8263575366284239
-61.83588317107093 -1.973245259192295 0.8191723473072627
-61.335187760778865 -1.9526587341358153 0.8119881502384672
-60.834492350486784 -1.9321349634287928 0.804805104657542
-60.333796940194716 -1.9116747475792253 0.7976233698000026
-59.83310152990265 -1.891278887095139 0.7904431049013467
-59.33240611961057 -1.8709481824845455 0.7832644691970916
-58.8317107093185 -1.8506834342554428 0.7760876219227366
-58.33101529902643 -1.8304854429158568 0.7689127223137919
-57.83031988873435 -1.8103550089737994 0.761739929605773
-57.329624478442284 -1.7902929329373038 0.754569403034181
-56.82892906815022 -1.7703000153143251 0.7474013018345225
-56.328233657858135 -1.7503770566129035 0.7402357852423112
-55.82753824756607 -1.7305248573410723 0.73307301249305
-55.326842837273986 -1.710744218006822 0.7259131428222438
-54.82614742698192 -1.6910359391181573 0.7187563354654081
-54.32545201668985 -1.6714008211830902 0.7116027496580422
-53.82475660639777 -1.6518396647096325 0.7044525446356651
-53.3240611961057 -1.6323532702058317 0.6973058796337763
-52.823365785813635 -1.6129424381796569 0.6901629138878842
-52.322670375521554 -1.5936079691391272 0.6830238066335006
-51.82197496522949 -1.5743506635922544 0.6758887171061285
-51.321279554937405 -1.5551713220470647 0.6687578045412816
-50.82058414464535 -1.5360707450115698 0.6616312281744576
-50.31988873435327 -1.5170497329937462 0.6545091472411755
-49.81919332406119 -1.4981090865016413 0.6473917209769418
-49.318497913769136 -1.4792496060432598 0.6402791086172577
-48.817802503477054 -1.4604720921266066 0.6331714693976298
-48.31710709318497 -1.4417773452596863 0.6260689625535771
-47.81641168289292 -1.423166165950518 0.6189717473205956
-47.31571627260084 -1.4046393547071276 0.6118799829342005
-46.81502086230876 -1.3861977120374989 0.6047938286298986
-46.3143254520167 -1.3678420384496577 0.5977134436431928
-45.81363004172462 -1.349573134451616 0.5906389872096021
-45.31293463143254 -1.331391800551407 0.5835706185646206
-44.81223922114049 -1.3132988372569927 0.5765084969437619
-44.311543810848406 -1.2952950450764136 0.5694527815825381
-43.810848400556324 -1.2773812245176672 0.5624036317164502
-43.31015299026427 -1.2595581760888082 0.5553612065810121
-42.80945757997219 -1.2418267002977772 0.5483256654117248
-42.30876216968011 -1.2241875976526502 0.5412971674441003
-41.808066759388026 -1.2066416686613963 0.5342758719136451
-41.30737134909597 -1.1891897138320489 0.527261938055873
-40.80667593880389 -1.1718325336726196 0.5202555251062833
-40.30598052851181 -1.1545709286911205 0.5132567923003861
-39.80528511821976 -1.1374056993955421 0.5062658988736934
-39.304589707927676 -1.1203376462939176 0.49928300406171
-38.803894297635594 -1.1033675698942376 0.4923082670999388
-38.30319888734354 -1.0864962707045422 0.48534184722389706
-37.80250347705146 -1.069724549232808 0.478383903669086
-37.30180806675938 -1.0530532059870752 0.47143459567101753
-36.801112656467325 -1.0364830414753485 0.46449408246519464
-36.30041724617524 -1.0200148562056328 0.457562523287131
-35.79972183588316 -1.0036494506859328 0.4506400773723278
-35.29902642559111 -0.9873876254242959 0.443726903956297
-34.79833101529903 -0.9712301809286914 0.4368231622745469
-34.297635605006946 -0.9551779177071453 0.4299290115625858
-33.79694019471489 -0.9392316362676696 0.42304461105591673
-33.29624478442281 -0.923392137118269 0.4161701199900534
-32.79554937413073 -0.9076602207669837 0.40930569760049873
-32.294853963838676 -0.8920366877217902 0.40245150312276645
-31.794158553546595 -0.8765223384907004 0.3956076957923542
-31.293463143254513 -0.8611179735817545 0.388774434844781
-30.79276773296246 -0.845824393502943 0.38195187951555165
-30.29207232267038 -0.8306423987622922 0.3751401890401673
-29.791376912378297 -0.8155727898677925 0.36833952265413994
-29.290681502086244 -0.8006163673274771 0.36155003959298493
-28.789986091794162 -0.7857739316493224 0.3547718990921964
-28.28929068150208 -0.77104628334139 0.3480052603872916
-27.788595271210028 -0.7564342229116563 0.34125028271378066
-27.287899860917946 -0.7419385508681331 0.3345071253071559
-26.787204450625865 -0.7275600677188536 0.3277759474029416
-26.28650904033381 -0.7132995739718013 0.32105690823664434
-25.78581363004173 -0.6991578701350165 0.3143501670437636
-25.28511821974965 -0.6851357567164897 0.3076558830598095
-24.784422809457595 -0.67123403422424 0.3009742155202939
-24.283727399165514 -0.657453503166272 0.2943053236607198
-23.783031988873432 -0.6437949640506191 0.28764936671659913
-23.28233657858135 -0.6302592173852433 0.2810065039234366
-22.781641168289298 -0.6168470636782204 0.27437689451674063
-22.280945757997216 -0.6035593034375197 0.26776069773202127
-21.780250347705135 -0.590396737171146 0.2611580728047833
-21.27955493741308 -0.5773601653871538 0.2545691789705369
-20.778859527121 -0.5644503885935124 0.24799417546478852
-20.27816411682892 -0.5516682072982477 0.2414332215230448
-19.777468706536865 -0.5390144220093789 0.23488647638081583
-19.276773296244784 -0.5264898332349177 0.22835409927361172
-18.776077885952702 -0.5140952414828619 0.2218362494369337
-18.27538247566065 -0.5018314472612162 0.21533308610629542
-17.774687065368568 -0.48969925107803514 0.20884476851720346
-17.273991655076486 -0.47769945344128084 0.20237145590515904
-16.773296244784433 -0.4658328548589865 0.19591330750568292
-16.27260083449235 -0.4541002558391569 0.189470482554271
-15.77190542420027 -0.44250245688981105 0.18304314028644053
-15.271210013908217 -0.431040258518975 0.17663143993768915
-14.770514603616135 -0.41971446123460376 0.1702355407435323
-14.269819193324054 -0.4085258655447803 0.16385560193947657
-13.769123783032 -0.3974752719574597 0.1574917827610267
-13.268428372739919 -0.38656348098068216 0.15114424244369462
-12.767732962447838 -0.37579129312247384 0.14481314022298508
-12.267037552155784 -0.36515950889080395 0.13849863533440643
-11.766342141863703 -0.3546689287937057 0.13220088701346522
-11.265646731571621 -0.3443203533391981 0.12592005449567156
-10.764951321279568 -0.33411458303529296 0.11965629701653735
-10.264255910987487 -0.3240524183899809 0.11340977381156025
-9.763560500695405 -0.314118497913769 0.10717869262865085
-9.262865090403352 -0.3085680111265647 0.10102592489568862
-8.76216968011127 -0.3174278164116827 0.09565196105702369
-8.261474269819189 -0.3600394993045903 0.09471885952712103
-7.760778859527136 -0.40583866481223857 0.09455062586926298
