Polar data for 2 at Re = 31428.571428571428
Alpha (deg) Cl Cd
-180.0 -5.820904101455717 1.24309204876799
-179.49930458970792 -5.834560463034162 1.2410309429519422
-178.99860917941587 -5.84811251581607 1.238949832625464
-178.49791376912378 -5.861559705876114 1.2368488229698857
-177.9972183588317 -5.874901479288961 1.2347280191665355
-177.49652294853965 -5.88813728212928 1.232587526396741
-176.99582753824757 -5.9012665604717425 1.2304274498418328
-176.4951321279555 -5.914288760391016 1.2282478946831379
-175.99443671766343 -5.927203327961772 1.2260489661019878
-175.49374130737135 -5.940009709258679 1.223830769279708
-174.99304589707927 -5.952707350356405 1.2215934093976304
-174.49235048678722 -5.965295697329624 1.219336991637081
-173.99165507649514 -5.977774196253001 1.2170616211793908
-173.49095966620305 -5.990142293201209 1.214767403205887
-172.990264255911 -6.002399434248916 1.212454442897899
-172.48956884561892 -6.014545065470791 1.2101228454367563
-171.98887343532684 -6.026578632941503 1.2077727160037868
-171.48817802503476 -6.038499582735724 1.2054041597803193
-170.9874826147427 -6.050307360928121 1.203017281947683
-170.48678720445062 -6.062001413593369 1.2006121876872062
-169.98609179415854 -6.07358118680613 1.198188982180219
-169.4853963838665 -6.085046126641078 1.1957477706080475
-168.9847009735744 -6.096395679172881 1.1932886581520226
-168.48400556328232 -6.1076292904762095 1.1908117499934736
-167.98331015299027 -6.118746406625733 1.1883171513137278
-167.4826147426982 -6.129746473696121 1.1858049672941142
-166.9819193324061 -6.140628937762042 1.1832753031159617
-166.48122392211405 -6.151393244898167 1.1807282639605994
-165.98052851182197 -6.162038841179165 1.1781639550093574
-165.4798331015299 -6.172565172679707 1.1755824814435618
-164.97913769123784 -6.18297168547446 1.1729839484445423
-164.47844228094576 -6.193257825638095 1.170368461193629
-163.97774687065368 -6.203423039245282 1.1677361248721487
-163.47705146036162 -6.21346677237069 1.1650870446614316
-162.97635605006954 -6.223388471088987 1.162421325742807
-162.47566063977746 -6.233187581474844 1.1597390732976018
-161.9749652294854 -6.242863549602931 1.1570403925071462
-161.47426981919332 -6.2524158215479195 1.1543253885527678
-160.97357440890124 -6.261843843384475 1.151594166615796
-160.4728789986092 -6.2711470611872695 1.1488468318775613
-159.9721835883171 -6.280324921030972 1.1460834895193885
-159.47148817802503 -6.289376868990251 1.1433042447226116
-158.97079276773297 -6.298302351139776 1.1405092026685555
-158.4700973574409 -6.307100813554221 1.13769846853855
-157.9694019471488 -6.3157717023082505 1.1348721475139234
-157.46870653685676 -6.3243144634765365 1.1320303447760054
-156.96801112656468 -6.332728543133747 1.129173165506125
-156.4673157162726 -6.341013387354553 1.12630071488561
-155.96662030598054 -6.349168442213624 1.1234130980957904
-155.46592489568846 -6.357193153785627 1.1205104203179936
-154.96522948539638 -6.365086968145237 1.1175927867335487
-154.46453407510432 -6.372849331367117 1.1146603025237853
-153.96383866481224 -6.380479689525942 1.1117130728700317
-153.46314325452016 -6.387977488696379 1.1087512029536164
-152.9624478442281 -6.395342174953096 1.1057747979558683
-152.46175243393603 -6.402573194370768 1.1027839630581164
-151.96105702364395 -6.409669993024059 1.0997788034416898
-151.4603616133519 -6.416632016987641 1.0967594242879168
-150.9596662030598 -6.423458712336185 1.0937259307781262
-150.45897079276773 -6.430149525144355 1.0906784280936468
-149.95827538247568 -6.436703901486827 1.087617021415808
-149.4575799721836 -6.4431212874382675 1.0845418159259372
-148.9568845618915 -6.4494011290733475 1.081452916805365
-148.45618915159943 -6.455542872466734 1.0783504292354191
-147.95549374130738 -6.4615459636931005 1.0752344583974276
-147.4547983310153 -6.467409848827112 1.0721051094727212
-146.95410292072324 -6.473133973943442 1.0689624876426276
-146.45340751043116 -6.478717785116759 1.0658066980884748
-145.95271210013908 -6.484160728421729 1.062637845991592
-145.452016689847 -6.489462249933029 1.0594560365333088
-144.95132127955495 -6.494621795725319 1.0562613748949543
-144.45062586926286 -6.499638811873277 1.0530539662578557
-143.94993045897078 -6.504512744451569 1.049833915803342
-143.44923504867873 -6.509243039534866 1.0466013287127436
-142.94853963838665 -6.513829143197832 1.0433563101673888
-142.44784422809457 -6.518270501515143 1.040098965348606
-141.9471488178025 -6.52256656056147 1.036829399437723
-141.44645340751043 -6.526716766411477 1.0335477176160701
-140.94575799721835 -6.530720565139836 1.0302540250649752
-140.44506258692627 -6.534577402821215 1.0269484269657667
-139.94436717663422 -6.538286725530286 1.023631028499774
-139.44367176634213 -6.5418479793417195 1.0203019348483284
-138.94297635605005 -6.5452606103301765 1.016961251192754
-138.442280945758 -6.548524064570341 1.0136090827143818
-137.94158553546592 -6.551637788136869 1.0102455345945422
-137.44089012517384 -6.5546012271044365 1.0068707120145612
-136.94019471488178 -6.557413827547714 1.003484720155769
-136.4394993045897 -6.560075035541368 1.0000876641994934
-135.93880389429762 -6.562584297160072 0.9966796493270644
-135.43810848400557 -6.564941058478491 0.9932607807198108
-134.9374130737135 -6.567144765571298 0.9898311635590602
-134.4367176634214 -6.569194864513163 0.9863909030261429
-133.93602225312935 -6.57109080137875 0.9829401043023873
-133.43532684283727 -6.572832022242732 0.9794788725691195
-132.9346314325452 -6.574417973179779 0.9760073130076732
-132.43393602225314 -6.5758481002645635 0.9725255307993725
-131.93324061196105 -6.577121849571752 0.9690336311255496
-131.43254520166897 -6.578238667176013 0.9655317191675303
-130.93184979137692 -6.579197999152017 0.9620199001066476
-130.43115438108484 -6.579999291574433 0.9584982791242247
-129.93045897079276 -6.580641990517931 0.9549669614015954
-129.4297635605007 -6.5811255420571815 0.9514260521200884
-128.92906815020862 -6.581449392266856 0.9478756564610267
-128.42837273991654 -6.58161298722162 0.9443158796057443
-127.92767732962449 -6.581615772996143 0.9407468267355696
-127.4269819193324 -6.581457195665097 0.9371686030318296
-126.92628650904032 -6.581136701303151 0.9335813136758535
-126.42559109874827 -6.580653735984974 0.9299850638489717
-125.92489568845619 -6.580007745785236 0.9263799587325119
-125.42420027816411 -6.579198176778608 0.9227661035078016
-124.92350486787205 -6.578224475039759 0.9191436033561704
-124.42280945757997 -6.577086086643355 0.9155125634589485
-123.92211404728789 -6.575782457664067 0.9118730889974644
-123.42141863699584 -6.574313034176571 0.908225285153045
-122.92072322670376 -6.572677262255526 0.9045692571070214
-122.42002781641168 -6.570874587975611 0.9009051100407195
-121.91933240611961 -6.568904457411488 0.8972329491354714
-121.41863699582754 -6.566766316637834 0.8935528795726038
-120.91794158553546 -6.564459611729312 0.8898650065334444
-120.41724617524339 -6.561983788760594 0.8861694351993252
-119.91655076495132 -6.559338293806352 0.882466270751574
-119.41585535465924 -6.556522572941253 0.8787556183715166
-118.91515994436718 -6.553536072239963 0.875037583240486
-118.41446453407511 -6.55037823777716 0.8713122705398089
-117.91376912378303 -6.547048515627507 0.8675797854508147
-117.41307371349096 -6.543546351865677 0.8638402331548312
-116.91237830319889 -6.5398711925663395 0.8600937188331867
-116.41168289290681 -6.5360224838041585 0.8563403476672127
-115.91098748261474 -6.531999671653811 0.8525802248382357
-115.41029207232268 -6.527802202189962 0.8488134555275852
-114.9095966620306 -6.5234295214872855 0.845040144916589
-114.40890125173853 -6.518881075620444 0.8412603981865798
-113.90820584144646 -6.514156310664113 0.837474320518881
-113.40751043115438 -6.509254672692963 0.8336820170948229
-112.90681502086231 -6.504175607781656 0.8298835930957384
-112.40611961057024 -6.498918562004869 0.8260791537029499
-111.90542420027816 -6.493482981437268 0.8222688040977912
-111.4047287899861 -6.487868312153525 0.8184526494615891
-110.90403337969401 -6.482074000228305 0.8146307949756721
-110.40333796940195 -6.476099491736286 0.8108033458213697
-109.90264255910988 -6.4699442327521295 0.8069704071800095
-109.4019471488178 -6.463607669350506 0.8031320842329226
-108.90125173852573 -6.457089247606091 0.7992884821614359
-108.40055632823366 -6.450388413593548 0.7954397061468788
-107.89986091794158 -6.4435046133875495 0.7915858613705788
-107.39916550764951 -6.436437293062761 0.7877270530138674
-106.89847009735745 -6.429185898693859 0.783863386258072
-106.39777468706536 -6.421749876355507 0.7799949662845194
-105.8970792767733 -6.414128672122377 0.7761218982745417
-105.39638386648123 -6.406321732069141 0.7722442874094657
-104.89568845618915 -6.398328502270464 0.7683622388706208
-104.39499304589708 -6.390148428801017 0.7644758578393356
-103.89429763560501 -6.38178095773547 0.7605852494969394
-103.39360222531293 -6.373225535148491 0.7566905190247599
-102.89290681502086 -6.364481607114756 0.7527917716041275
-102.3922114047288 -6.355548619708928 0.7488891124163688
-101.89151599443672 -6.346426019005678 0.7449826466428142
-101.39082058414465 -6.337113251079675 0.7410724794647932
-100.89012517385257 -6.327609762005592 0.7371587160636315
-100.3894297635605 -6.317914997858096 0.7332414616206604
-99.88873435326843 -6.308028404711856 0.7293208213172102
-99.38803894297635 -6.29794942864154 0.7253969003346059
-98.88734353268428 -6.287677515721824 0.7214698038541769
-98.38664812239222 -6.277212112027373 0.7175396370572562
-97.88595271210013 -6.266552663632853 0.713606505125167
-97.38525730180807 -6.255698616612941 0.7096705132392431
-96.884561891516 -6.244649417042302 0.7057317665808096
-96.38386648122392 -6.233404510995607 0.701790370331195
-95.88317107093185 -6.221963344547525 0.6978464296717313
-95.38247566063978 -6.210325363772725 0.6939000497837471
-94.8817802503477 -6.198490014745879 0.6899513358485656
-94.38108484005564 -6.186456743541656 0.6860003930475225
-93.88038942976357 -6.174224996234722 0.6820473265619427
-93.37969401947149 -6.161794218899754 0.6780922415731556
-92.87899860917942 -6.149163857611413 0.6741352432624907
-92.37830319888734 -6.136333358444373 0.6701764368112766
-91.87760778859527 -6.123302167473302 0.6662159274008435
-91.3769123783032 -6.110069730772869 0.6622538202125172
-90.87621696801112 -6.0966354944177485 0.6582902204276273
-90.37552155771905 -6.082998904482606 0.654325233227504
-89.87482614742699 -6.069159407042111 0.6503589637934777
-89.3741307371349 -6.055116448170937 0.6463915173068715
-88.87343532684284 -6.040869473943745 0.6424229989490176
-88.37273991655077 -6.0264179304352155 0.6384535139012462
-87.87204450625869 -6.0117612637200075 0.6344831673448859
-87.37134909596662 -5.9968989198728 0.6305120644612581
-86.87065368567455 -5.981830344968255 0.6265403104317055
-86.36995827538247 -5.966554985081046 0.6225680104375435
-85.8692628650904 -5.951072286285841 0.6185952696601076
-85.36856745479834 -5.935381694657311 0.6146221932807281
-84.86787204450626 -5.919482656270127 0.6106488864807282
-84.36717663421419 -5.9033746171989545 0.6066754544414392
-83.86648122392211 -5.887057023518462 0.6027020023441931
-83.36578581363004 -5.8705293213033265 0.5987286353703167
-82.86509040333797 -5.853790956628211 0.5947554587011332
-82.36439499304589 -5.836841375567788 0.5907825775179809
-81.86369958275382 -5.819680024196726 0.5868100970021812
-81.36300417246176 -5.8023063485896955 0.5828381223350672
-80.86230876216968 -5.784719794821369 0.5788667586979628
-80.36161335187761 -5.766919808966412 0.5748961112722029
-79.86091794158554 -5.748905837099489 0.5709262852391133
-79.36022253129346 -5.7306773252952805 0.5669573857800199
-78.85952712100139 -5.712233719628449 0.5629895180762574
-78.35883171070932 -5.693574466173667 0.5590227873091509
-77.85813630041724 -5.6746990110056 0.5550572986600288
-77.35744089012518 -5.655606800198919 0.5510931573102251
-76.85674547983311 -5.636297279828298 0.5471304684410603
-76.35605006954103 -5.616769895968407 0.5431693372338682
-75.85535465924896 -5.597024094693909 0.5392098688699765
-75.35465924895689 -5.57705932207948 0.5352521685307163
-74.85396383866481 -5.556875024199785 0.5312963413974128
-74.35326842837274 -5.536470647129487 0.5273424926513979
-73.85257301808066 -5.515845636943274 0.5233907274739975
-73.3518776077886 -5.494999439715798 0.5194411510465429
-72.85118219749653 -5.473931501521742 0.515493868550359
-72.35048678720445 -5.452641268435764 0.5115489851667796
-71.84979137691238 -5.431128186532543 0.5076066060771298
-71.34909596662031 -5.409391701886744 0.5036668364627417
-70.84840055632823 -5.387431260573031 0.49972978150494013
-70.34770514603616 -5.3652463086660855 0.4957955463850591
-69.8470097357441 -5.342836292240575 0.49186423628442094
-69.34631432545201 -5.320200657371156 0.48793595638435855
-68.84561891515995 -5.297338850132512 0.4840108118662014
-68.34492350486788 -5.274250316599307 0.4800889079112753
-67.8442280945758 -5.250934502846212 0.4761703497009097
-67.34353268428373 -5.227390854947894 0.47225524241643585
-66.84283727399166 -5.203618818979029 0.46834369123918135
-66.34214186369958 -5.179617841014274 0.4644358013504721
-65.84144645340751 -5.155387367128318 0.460531677931641
-65.34075104311543 -5.130926843395814 0.4566314261640149
-64.84005563282336 -5.106235715891433 0.4527351512289232
-64.3393602225313 -5.081313430689857 0.44884295830769266
-63.838664812239216 -5.056159433865741 0.44495495258165535
-63.33796940194715 -5.030773171493758 0.44107123923213803
-62.83727399165508 -5.005154089648583 0.43719192344047103
-62.336578581363 -4.979301634404889 0.4333171103879802
-61.83588317107093 -4.953215251837332 0.42944690525599677
-61.335187760778865 -4.926894388020589 0.42558141322585014
-60.834492350486784 -4.900338489029336 0.4217207394788662
-60.333796940194716 -4.873547000938228 0.4178649891963752
-59.83310152990265 -4.846519369821944 0.41401426755970755
-59.33240611961057 -4.819255041755156 0.41016867975018817
-58.8317107093185 -4.791753462812524 0.40632833094915094
-58.33101529902643 -4.7640140790687315 0.40249332633791907
-57.83031988873435 -4.736036336598437 0.3986637710978264
-57.329624478442284 -4.707819681476305 0.3948397704102015
-56.82892906815022 -4.679363559777027 0.3910214294563676
-56.328233657858135 -4.650667417575248 0.3872088534176585
-55.82753824756607 -4.621730700945651 0.38340214747540186
-55.326842837273986 -4.592552855962904 0.37960141681092713
-54.82614742698192 -4.563133328701674 0.37580676660556017
-54.32545201668985 -4.5334715652366295 0.3720183020406313
-53.82475660639777 -4.503567011642451 0.3682361282974726
-53.3240611961057 -4.47341911399379 0.36446035055740816
-52.823365785813635 -4.443027318365331 0.3606910740017692
-52.322670375521554 -4.412391070831735 0.356928403811886
-51.82197496522949 -4.3815098174676805 0.3531724451690809
-51.321279554937405 -4.350383004347826 0.3494233032546887
-50.82058414464535 -4.319010077546849 0.3456810832500378
-50.31988873435327 -4.2873904831394185 0.3419458903364569
-49.81919332406119 -4.255523667200192 0.33821782969527175
-49.318497913769136 -4.223409075803859 0.3344970065078127
-48.817802503477054 -4.1910461550250755 0.3307835259554101
-48.31710709318497 -4.158434350938517 0.32707749321939067
-47.81641168289292 -4.125573109618848 0.32337901348108383
-47.31571627260084 -4.092461877140746 0.3196881919218199
-46.81502086230876 -4.059100099578872 0.31600513372292566
-46.3143254520167 -4.0254872230079 0.3123299440657314
-45.81363004172462 -3.991622693502496 0.30866272813156387
-45.31293463143254 -3.957505957137334 0.3050035911017552
-44.81223922114049 -3.9231364599870826 0.3013526381576285
-44.311543810848406 -3.888513648126411 0.29770997448051867
-43.810848400556324 -3.853636967629985 0.2940757052517515
-43.31015299026427 -3.8185058645724794 0.29044993565265725
-42.80945757997219 -3.7831197850285676 0.286832770864561
-42.30876216968011 -3.7474781750729047 0.28322431606879656
-41.808066759388026 -3.711580480780171 0.27962467644668715
-41.30737134909597 -3.6754261482250428 0.2760339571795684
-40.80667593880389 -3.6390146234821668 0.27245226344876533
-40.30598052851181 -3.6023453526262337 0.26887970043560466
-39.80528511821976 -3.5654177817319113 0.2653163733214194
-39.304589707927676 -3.528231356873853 0.26176238728753715
-38.803894297635594 -3.4907855241267445 0.25821784751528293
-38.30319888734354 -3.453079729565257 0.2546828591859915
-37.80250347705146 -3.4151134192640438 0.2511575274809869
-37.30180806675938 -3.376886039297787 0.24764195758159951
-36.801112656467325 -3.33839703574116 0.24413625466915873
-36.30041724617524 -3.2996458546688157 0.24064052392499308
-35.79972183588316 -3.260631942155438 0.23715487053042844
-35.29902642559111 -3.221354744275695 0.23367939966680046
-34.79833101529903 -3.181813707104247 0.23021421651543233
-34.297635605006946 -3.1420082767157727 0.2267594262576535
-33.79694019471489 -3.101937899184943 0.22331513407479514
-33.29624478442281 -3.061602020586415 0.21988144514818225
-32.79554937413073 -3.021000086994867 0.2164584646591478
-32.294853963838676 -2.98013154448498 0.2130462977890168
-31.794158553546595 -2.9389958391313993 0.2096450497191213
-31.293463143254513 -2.8975924170088057 0.20625482563078895
-30.79276773296246 -2.8559207241918845 0.20287573070534654
-30.29207232267038 -2.8139802067552786 0.19950787012412613
-29.791376912378297 -2.77177031077367 0.1961513490684536
-29.290681502086244 -2.729290482321737 0.19280627271966105
-28.789986091794162 -2.686540167474133 0.18947274625907257
-28.28929068150208 -2.6435188123055298 0.186150874868022
-27.788595271210028 -2.6002258628906088 0.18284076372783437
-27.287899860917946 -2.556660765304036 0.17954251801983906
-26.787204450625865 -2.5128229656204724 0.1762562429253664
-26.28650904033381 -2.468711909914594 0.1729820436257467
-25.78581363004173 -2.4243270442610694 0.16972002530230407
-25.28511821974965 -2.3796678147345585 0.16647029313637057
-24.784422809457595 -2.3347336674097576 0.16323295230927387
-24.283727399165514 -2.2895240483613097 0.1600081080023425
-23.783031988873432 -2.2440384036638896 0.15679586539690854
-23.28233657858135 -2.198276179392181 0.15359632967429254
-22.781641168289298 -2.152236821620839 0.1504096060158328
-22.280945757997216 -2.105919776424532 0.14723579960285432
-21.780250347705135 -2.059324489877948 0.14407501561668384
-21.27955493741308 -2.0124504080557344 0.14092735923865168
-20.778859527121 -1.9652969770325708 0.13779293565008993
-20.27816411682892 -1.9178636428831286 0.1346718500323218
-19.777468706536865 -1.8701498516820738 0.13156420756667847
-19.276773296244784 -1.8221550495040724 0.12847011343448939
-18.776077885952702 -1.7738786824238062 0.12538967281708308
-18.27538247566065 -1.7253201965159342 0.1223229908957863
-17.774687065368568 -1.6764790378551258 0.11927017285193203
-17.273991655076486 -1.6273546525160576 0.11623132386684526
-16.773296244784433 -1.5779464865733992 0.11320654912185807
-16.27260083449235 -1.528253986101804 0.11019595379829544
-15.77190542420027 -1.4782765971759648 0.1071996430774877
-15.271210013908217 -1.4280137658705367 0.10421772214076691
-14.770514603616135 -1.377464938260193 0.10125029616945364
-14.269819193324054 -1.3266295604195975 0.09829747034488884
-13.769123783032 -1.2755070784234377 0.09535934984838862
-13.268428372739919 -1.2240969383463618 0.09243603986129217
-12.767732962447838 -1.1723985862630464 0.08952764556492093
-12.267037552155784 -1.1204114682481716 0.08663427214060876
-11.766342141863703 -1.0681350303763946 0.08375602476967886
-11.265646731571621 -1.01556871872239 0.0808930086334651
-10.764951321279568 -0.9627119793608241 0.07804532891329424
-10.264255910987487 -0.9095642583663661 0.07521309079049304
-9.763560500695405 -0.856125001813691 0.07239639944639714
-9.262865090403352 -0.8023936557774682 0.0695953600623262
-8.76216968011127 -0.7483696663323602 0.06681007781961762
-8.261474269819189 -0.6940524795530383 0.06404065789959285
-7.760778859527136 -0.6394415415141879 0.06128720548358396
