Polar data for a18sm at Re = 122857.14285714287
Alpha (deg) Cl Cd
-180.0 -9.131288043784554 1.3147566561903645
-179.49930458970792 -9.132849490362853 1.311326409193866
-178.99860917941587 -9.1342484945251 1.3078741443126074
-178.49791376912378 -9.135485120472252 1.3044000379794032
-177.9972183588317 -9.136559432405274 1.3009042666270612
-177.49652294853965 -9.13747149452511 1.2973870066883963
-176.99582753824757 -9.138221371032722 1.2938484345962202
-176.4951321279555 -9.13880912612907 1.2902887267833443
-175.99443671766343 -9.13923482401511 1.2867080596825817
-175.49374130737135 -9.139498528891798 1.283106609726745
-174.99304589707927 -9.139600304960092 1.2794845533486445
-174.49235048678722 -9.13954021642095 1.2758420669810928
-173.99165507649514 -9.139318327475328 1.272179327056903
-173.49095966620305 -9.138934702324185 1.2684965100088876
-172.990264255911 -9.138389405168473 1.2647937922698562
-172.48956884561892 -9.137682500209154 1.261071350272623
-171.98887343532684 -9.136814051647185 1.2573293604500002
-171.48817802503476 -9.135784123683518 1.2535679992347994
-170.9874826147427 -9.134592780519117 1.2497874430598348
-170.48678720445062 -9.133240086354933 1.2459878683579133
-169.98609179415854 -9.13172610539193 1.2421694515618518
-169.4853963838665 -9.130050901831057 1.2383323691044599
-168.9847009735744 -9.12821453987328 1.2344767974185527
-168.48400556328232 -9.12621708371955 1.2306029129369398
-167.98331015299027 -9.124058597570825 1.2267108920924337
-167.4826147426982 -9.12173914562806 1.2228009113178457
-166.9819193324061 -9.119258792092218 1.218873147045991
-166.48122392211405 -9.116617601164252 1.2149277757096784
-165.98052851182197 -9.113815637045121 1.2109649737417236
-165.4798331015299 -9.110852963935782 1.2069849175749339
-164.97913769123784 -9.10772964603719 1.202987783642124
-164.47844228094576 -9.104445747550304 1.1989737483761076
-163.97774687065368 -9.101001332676082 1.194942988209694
-163.47705146036162 -9.097396465615478 1.1908956795756984
-162.97635605006954 -9.093631210569452 1.1868319989069305
-162.47566063977746 -9.08970563173896 1.1827521226362034
-161.9749652294854 -9.085619793324959 1.1786562271963288
-161.47426981919332 -9.081373759528402 1.174544489020117
-160.97357440890124 -9.076967594550256 1.1704170845403843
-160.4728789986092 -9.07240136259147 1.166274190189941
-159.9721835883171 -9.067675127853006 1.1621159824015976
-159.47148817802503 -9.062788954535819 1.1579426376081685
-158.97079276773297 -9.057742906840867 1.153754332242466
-158.4700973574409 -9.052537048969103 1.1495512427372996
-157.9694019471488 -9.047171445121487 1.1453335455254827
-157.46870653685676 -9.041646159498976 1.1411014170398277
-156.96801112656468 -9.035961256302528 1.136855033713147
-156.4673157162726 -9.0301167997331 1.1325945719782518
-155.96662030598054 -9.02411285399165 1.1283202082679564
-155.46592489568846 -9.017949483279132 1.1240321190150724
-154.96522948539638 -9.011626751796507 1.1197304806524075
-154.46453407510432 -9.005144723744731 1.1154154696127814
-153.96383866481224 -8.998503463324758 1.1110872623289991
-153.46314325452016 -8.991703034737547 1.1067460352338785
-152.9624478442281 -8.984743502184058 1.1023919647602274
-152.46175243393603 -8.977624929865241 1.098025227340859
-151.96105702364395 -8.97034738198206 1.0936459994085859
-151.4603616133519 -8.962910922735473 1.089254457396221
-150.9596662030598 -8.95531561632643 1.0848507777365761
-150.45897079276773 -8.947561526955898 1.0804351368624634
-149.95827538247568 -8.939648718824824 1.0760077112066944
-149.4575799721836 -8.931577256134169 1.0715686772020796
-148.9568845618915 -8.923347203084889 1.0671182112814341
-148.45618915159943 -8.914958623877945 1.062656489877572
-147.95549374130738 -8.906411582714291 1.0581836894232988
-147.4547983310153 -8.897706143794887 1.0536999863514318
-146.95410292072324 -8.888842371320685 1.049205557094781
-146.45340751043116 -8.879820329492645 1.0447005780861593
-145.95271210013908 -8.87064008251173 1.0401852257583786
-145.452016689847 -8.861301694578888 1.0356596765442518
-144.95132127955495 -8.851805229895081 1.0311241068765888
-144.45062586926286 -8.842150752661258 1.0265786931882046
-143.94993045897078 -8.83233832707839 1.022023611911908
-143.44923504867873 -8.822368017347422 1.0174590394805156
-142.94853963838665 -8.812239887669321 1.0128851523268374
-142.44784422809457 -8.801954002245036 1.008302126883683
-141.9471488178025 -8.79151042527553 1.0037101395838663
-141.44645340751043 -8.780909220961753 0.9991093668602009
-140.94575799721835 -8.77015045350467 0.9944999851454999
-140.44506258692627 -8.759234187105235 0.9898821708725711
-139.94436717663422 -8.748160485964402 0.9852561004742297
-139.44367176634213 -8.736929414283136 0.980621950383288
-138.94297635605005 -8.725541036262385 0.9759798970325557
-138.442280945758 -8.71399541610311 0.9713301168548469
-137.94158553546592 -8.702292618006272 0.966672786282974
-137.44089012517384 -8.690432706172817 0.9620080817497485
-136.94019471488178 -8.678415744803718 0.9573361796879827
-136.4394993045897 -8.666241798099922 0.952657256530488
-135.93880389429762 -8.653910930262384 0.9479714887100779
-135.43810848400557 -8.641423205492071 0.9432790526595627
-134.9374130737135 -8.628778687989929 0.9385801248117549
-134.4367176634214 -8.615977441956918 0.9338748815994669
-133.93602225312935 -8.603019531594004 0.9291634994555127
-133.43532684283727 -8.589905021102137 0.924446154812703
-132.9346314325452 -8.57663397468227 0.9197230241038501
-132.43393602225314 -8.563206456535369 0.9149942837617655
-131.93324061196105 -8.549622530862386 0.9102601102192607
-131.43254520166897 -8.535882261864277 0.9055206799091498
-130.93184979137692 -8.521985713742005 0.900776169264246
-130.43115438108484 -8.507932950696517 0.8960267547173564
-129.93045897079276 -8.493724036928782 0.8912726127012995
-129.4297635605007 -8.47935903663975 0.8865139196488825
-128.92906815020862 -8.464838014030377 0.8817508519929158
-128.42837273991654 -8.450161033301626 0.8769835861662199
-127.92767732962449 -8.43532815865445 0.8722122986015999
-127.4269819193324 -8.420339454289813 0.86743716573187
-126.92628650904032 -8.40519498440866 0.8626583639898417
-126.42559109874827 -8.389894813211956 0.8578760698083301
-125.92489568845619 -8.374439004900655 0.8530904596201421
-125.42420027816411 -8.358827623675715 0.8483017098580954
-124.92350486787205 -8.343060733738092 0.8435099969549962
-124.42280945757997 -8.327138399288746 0.8387154973436612
-123.92211404728789 -8.311060684528638 0.8339183874569047
-123.42141863699584 -8.294827653658714 0.8291188437275319
-122.92072322670376 -8.278439370879944 0.8243170425883604
-122.42002781641168 -8.261895900393277 0.8195131604721981
-121.91933240611961 -8.245197306399668 0.8147073738118593
-121.41863699582754 -8.22834365310008 0.809899859040158
-120.91794158553546 -8.21133500469546 0.8050907925899049
-120.41724617524339 -8.194171425386784 0.8002803508939105
-119.91655076495132 -8.176852979374992 0.7954687103849889
-119.41585535465924 -8.159379730861044 0.7906560474959508
-118.91515994436718 -8.141751744045905 0.7858425386596093
-118.41446453407511 -8.123969083130532 0.7810283603087769
-117.91376912378303 -8.10603181231587 0.7762136888762659
-117.41307371349096 -8.087939995802888 0.7713987007948877
-116.91237830319889 -8.069693697792538 0.766583572497453
-116.41168289290681 -8.051292982485773 0.7617684804167759
-115.91098748261474 -8.032737914083562 0.756953600985667
-115.41029207232268 -8.014028556786851 0.7521391106369422
-114.9095966620306 -7.995164974796605 0.7473251858034093
-114.40890125173853 -7.9761472323137745 0.7425120029178827
-113.90820584144646 -7.956975393539317 0.7376997384131727
-113.40751043115438 -7.937649522674199 0.7328885687220918
-112.90681502086231 -7.91816968391937 0.728078670277456
-112.40611961057024 -7.898535941475782 0.7232702195120722
-111.90542420027816 -7.8787483595443994 0.7184633928587545
-111.4047287899861 -7.858807002326184 0.7136583667503171
-110.90403337969401 -7.838711934022079 0.7088553176195698
-110.40333796940195 -7.81846321883306 0.7040544218993248
-109.90264255910988 -7.798060920960065 0.6992558560223936
-109.4019471488178 -7.777505104604057 0.6944597964215913
-108.90125173852573 -7.756795833966002 0.6896664195297275
-108.40055632823366 -7.735933173246853 0.6848759017796155
-107.89986091794158 -7.714917186647558 0.6800884196040642
-107.39916550764951 -7.693747938369086 0.6753041494358911
-106.89847009735745 -7.672425492612387 0.670523267707906
-106.39777468706536 -7.650949913578419 0.6657459508529169
-105.8970792767733 -7.629321265468146 0.6609723753037431
-105.39638386648123 -7.607539612482515 0.6562027174931935
-104.89568845618915 -7.585605018822488 0.6514371538540786
-104.39499304589708 -7.563517548689028 0.6466758608192162
-103.89429763560501 -7.541277266283082 0.6419190148214107
-103.39360222531293 -7.518884235805608 0.637166792293477
-102.89290681502086 -7.49633852145757 0.6324193696682301
-102.3922114047288 -7.473640187439923 0.627676923378478
-101.89151599443672 -7.450789297953623 0.6229396298570349
-101.39082058414465 -7.427785917199628 0.6182076655367175
-100.89012517385257 -7.4046301093788855 0.6134812068503284
-100.3894297635605 -7.38132193869237 0.6087604302306853
-99.88873435326843 -7.357861469341028 0.6040455121106023
-99.38803894297635 -7.334248765525814 0.5993366289228892
-98.88734353268428 -7.310483891447689 0.5946339571003556
-98.38664812239222 -7.286566911307617 0.5899376730758192
-97.88595271210013 -7.2624978893065375 0.5852479532820853
-97.38525730180807 -7.23827688964543 0.5805649741519725
-96.884561891516 -7.213903976525238 0.5758889121182895
-96.38386648122392 -7.189379214146918 0.571219943613847
-95.88317107093185 -7.164702666711435 0.5665582450714617
-95.38247566063978 -7.139874398419739 0.5619039929239424
-94.8817802503477 -7.114894473472784 0.5572573636041007
-94.38108484005564 -7.089762956071539 0.5526185335447533
-93.88038942976357 -7.064479910416953 0.5479876791787073
-93.37969401947149 -7.0390454007099805 0.5433649769387741
-92.87899860917942 -7.013459491151597 0.5387506032577722
-92.37830319888734 -6.987722245942734 0.5341447345685071
-91.87760778859527 -6.961833729284365 0.5295475473037954
-91.3769123783032 -6.935794005377442 0.5249592178964477
-90.87621696801112 -6.909603138422916 0.5203799227792765
-90.37552155771905 -6.883261192621756 0.5158098383850913
-89.87482614742699 -6.856768232174911 0.511249141146709
-89.3741307371349 -6.830124321283343 0.5066980074969394
-88.87343532684284 -6.803329524148005 0.5021566138685929
-88.37273991655077 -6.776383904969858 0.49762513669448283
-87.87204450625869 -6.749287527949857 0.4931037524074233
-87.37134909596662 -6.722040457288955 0.48859263744021963
-86.87065368567455 -6.694642757188124 0.4840919682256948
-86.36995827538247 -6.667094491848303 0.4796019211966531
-85.8692628650904 -6.639395725470454 0.4751226727859106
-85.36856745479834 -6.611546522255544 0.47065439942627596
-84.86787204450626 -6.5835469464045175 0.4661972775505625
-84.36717663421419 -6.555397062118338 0.46175148359158524
-83.86648122392211 -6.527096933597974 0.45731719398215387
-83.36578581363004 -6.498646625044362 0.4528945851550781
-82.86509040333797 -6.470046200658462 0.44848383354317467
-82.36439499304589 -6.441295724641243 0.44408511557925334
-81.86369958275382 -6.412395261193655 0.4396986076961238
-81.36300417246176 -6.383344874516652 0.4353244863266028
-80.86230876216968 -6.354144628811191 0.4309629279035001
-80.36161335187761 -6.324794588278248 0.4266141088596307
-79.86091794158554 -6.2952948171187515 0.4222782056278025
-79.36022253129346 -6.26564537953368 0.41795539464083054
-78.85952712100139 -6.235846339723981 0.41364585233152273
-78.35883171070932 -6.205897761890608 0.40934975513269767
-77.85813630041724 -6.175799710234532 0.40506727947716326
-77.35744089012518 -6.1455522489567045 0.4007986017977345
-76.85674547983311 -6.115155442258068 0.3965438985272176
-76.35605006954103 -6.084609354339598 0.3923033460984311
-75.85535465924896 -6.053914049402248 0.3880771209441829
-75.35465924895689 -6.023069591646969 0.38386539949728804
-74.85396383866481 -5.992076045274725 0.379668358190558
-74.35326842837274 -5.960933474486474 0.37548617345680957
-73.85257301808066 -5.929641943483158 0.3713190217288418
-73.3518776077886 -5.898201516465754 0.36716707943948035
-72.85118219749653 -5.866612257635207 0.36303052302152605
-72.35048678720445 -5.834874231192472 0.35890952890780103
-71.84979137691238 -5.802987501338517 0.35480427353111144
-71.34909596662031 -5.770952132274296 0.3507149333242723
-70.84840055632823 -5.738768188200758 0.34664168472009504
-70.34770514603616 -5.7064357333188696 0.34258470415139297
-69.8470097357441 -5.673954831829576 0.3385441680509722
-69.34631432545201 -5.641325547933846 0.3345202528516531
-68.84561891515995 -5.608547945832644 0.3305131349862436
-68.34492350486788 -5.575622089726906 0.3265229908875551
-67.8442280945758 -5.5425480438176 0.32254999698839915
-67.34353268428373 -5.509325872305688 0.3185943297215943
-66.84283727399166 -5.475955639392115 0.3146561655199449
-66.34214186369958 -5.442437409277847 0.310735680816266
-65.84144645340751 -5.408771246163845 0.30683305204337263
-65.34075104311543 -5.374957214251054 0.3029484556340709
-64.84005563282336 -5.3409953777404375 0.29908206802117765
-64.3393602225313 -5.306885800832955 0.2952340656375061
-63.838664812239216 -5.272628547729557 0.2914046249158624
-63.33796940194715 -5.238223682631208 0.2875939222890651
-62.83727399165508 -5.203671269738862 0.2838021341899222
-62.336578581363 -5.1689713732534734 0.28002943705124683
-61.83588317107093 -5.134124057375992 0.27627600730585056
-61.335187760778865 -5.099129386307407 0.27254202138655015
-60.834492350486784 -5.063987424248634 0.2688276557261482
-60.333796940194716 -5.028698235400654 0.26513308675746683
-59.83310152990265 -4.993261883964422 0.2614584909133122
-59.33240611961057 -4.957678434140895 0.2578040446265011
-58.8317107093185 -4.92194795013102 0.25416992432983965
-58.33101529902643 -4.886070496135769 0.2505563064561429
-57.83031988873435 -4.850046136356095 0.2469633674382259
-57.329624478442284 -4.813874934992942 0.2433912837088965
-56.82892906815022 -4.777556956247281 0.23984023170096802
-56.328233657858135 -4.7410922643200735 0.23631038784725544
-55.82753824756607 -4.704480923412266 0.23280192858056492
-55.326842837273986 -4.66772299772482 0.22931503033371503
-54.82614742698192 -4.630818551458688 0.2258498695395137
-54.32545201668985 -4.5937676488148185 0.22240662263077238
-53.82475660639777 -4.556570353994189 0.21898546604030789
-53.3240611961057 -4.519226731197747 0.2155865762009299
-52.823365785813635 -4.481736844626447 0.21221012954544816
-52.322670375521554 -4.444100758481255 0.2088563025066812
-51.82197496522949 -4.40631853696312 0.2055252715174316
-51.321279554937405 -4.3683902442729945 0.20221721301051798
-50.82058414464535 -4.330315944611854 0.19893230341875356
-50.31988873435327 -4.292095702180646 0.19567071917494805
-49.81919332406119 -4.253729581180316 0.19243263671191468
-49.318497913769136 -4.21521764581184 0.18921823246246494
-48.817802503477054 -4.176559960276158 0.18602768285940674
-48.31710709318497 -4.137756588774245 0.18286116433555866
-47.81641168289292 -4.09880759550704 0.1797188533237286
-47.31571627260084 -4.059713044675519 0.1766009262567334
-46.81502086230876 -4.020473000480621 0.17350755956737918
-46.3143254520167 -3.9810875271233073 0.17043892968848096
-45.81363004172462 -3.9415566888045532 0.16739521305285554
-45.31293463143254 -3.901880549725284 0.16437658609330907
-44.81223922114049 -3.8620591740864896 0.16138322524265125
-44.311543810848406 -3.822092626089102 0.1584153069337042
-43.810848400556324 -3.7819809699340823 0.15547300759927052
-43.31015299026427 -3.741724269822406 0.152556503672167
-42.80945757997219 -3.701322589955012 0.14966597158520156
-42.30876216968011 -3.6607759945328624 0.1468015877711928
-41.808066759388026 -3.6200845477569104 0.14396352866294682
-41.30737134909597 -3.5792483138281312 0.14115197069327867
-40.80667593880389 -3.5382673569474505 0.1383670902950016
-40.30598052851181 -3.4971417413158505 0.1356090639009253
-39.80528511821976 -3.4558715311342993 0.1328780679438648
-39.304589707927676 -3.4144567906037153 0.13017427885663158
-38.803894297635594 -3.3728975839250737 0.12749787307203175
-38.30319888734354 -3.3311939752993496 0.12484902702288747
-37.80250347705146 -3.2893460289274827 0.12222791714200487
-37.30180806675938 -3.24735380901042 0.11963471986219187
-36.801112656467325 -3.2052173797491506 0.11706961161627238
-36.30041724617524 -3.162936805344593 0.11453276883704722
-35.79972183588316 -3.1205121499977224 0.1120243679573314
-35.29902642559111 -3.077943477909507 0.10954458540994172
-34.79833101529903 -3.035230853280879 0.10709359762768789
-34.297635605006946 -2.9923743403128213 0.10467158104338314
-33.79694019471489 -2.9493740032062874 0.10227871208983719
-33.29624478442281 -2.90622990616221 0.09991516719985971
-32.79554937413073 -2.862942113381571 0.0975811228062693
-32.294853963838676 -2.819510689065332 0.09527675534187208
-31.794158553546595 -2.7759356974144183 0.09300224123948664
-31.293463143254513 -2.732217202629805 0.09075775693191912
-30.79276773296246 -2.688355268912467 0.088543478851981
-30.29207232267038 -2.6443499604633374 0.08635958343249617
-29.791376912378297 -2.600201341483377 0.08420624710626012
-29.290681502086244 -2.555909476173561 0.08208364630609677
-28.789986091794162 -2.5114744287348074 0.07999195746481225
-28.28929068150208 -2.4668962633681204 0.07793135701522158
-27.788595271210028 -2.4221750442744394 0.0759020213901398
-27.287899860917946 -2.377310835654697 0.0739041270223677
-26.787204450625865 -2.3323037017098756 0.07193785034472922
-26.28650904033381 -2.287153706640943 0.07000336779003402
-25.78581363004173 -2.241860914648825 0.06810085579109182
-25.28511821974965 -2.1964253899344968 0.06623049078071053
-24.784422809457595 -2.150847196698926 0.06439244919171583
-24.283727399165514 -2.105126399143032 0.06258690745690498
-23.783031988873432 -2.05926306146781 0.0608140420091019
-23.28233657858135 -2.0132572478742077 0.05907402928110561
-22.781641168289298 -1.9671090225631715 0.05736704570574003
-22.280945757997216 -1.9208184497356697 0.05569326771581662
-21.780250347705135 -1.874385593592649 0.05405287174413975
-21.27955493741308 -1.8278105183350846 0.052446034223528004
-20.778859527121 -1.781093288163909 0.05087293158678752
-20.27816411682892 -1.7342339672801046 0.04933374026674042
-19.777468706536865 -1.687232619884604 0.047828636696185756
-19.276773296244784 -1.6400893101783893 0.046357797307950976
-18.776077885952702 -1.5928041023623933 0.044921398534833346
-18.27538247566065 -1.5453770606375983 0.04351961680965144
-17.774687065368568 -1.4978082492049367 0.04215262856522206
-17.273991655076486 -1.4500977322653696 0.04082061023435135
-16.773296244784433 -1.4022455740198723 0.039523738249849005
-16.27260083449235 -1.3542518386693914 0.0382621890445336
-15.77190542420027 -1.3061165904148808 0.037036139051218386
-15.271210013908217 -1.2578398934573016 0.03584576470270773
-14.770514603616135 -1.2094218119976006 0.03469124243181665
-14.269819193324054 -1.1608624102367529 0.033572748671365504
-13.769123783032 -1.1121617523757052 0.032490459854151554
-13.268428372739919 -1.0633199026154116 0.031444552412998705
-12.767732962447838 -1.014336925156833 0.030435202780714876
-12.267037552155784 -0.9652128842009304 0.029462587390109762
-11.766342141863703 -0.9159478439486577 0.028526882674000165
-11.265646731571621 -0.8665418686009758 0.027628265065194002
-10.764951321279568 -0.8169950223588387 0.026766910996511628
-10.264255910987487 -0.7673073694232002 0.025942996900753856
-9.763560500695405 -0.7174789739950143 0.025156699210739264
-9.262865090403352 -0.6675099002752489 0.024408194359282875
-8.76216968011127 -0.6174002124648581 0.023697658779190833
-8.261474269819189 -0.5671499747647957 0.02302526890327461
-7.760778859527136 -0.5167592513760155 0.022391201164349228
