Polar data for 1 at Re = 180000.0
Alpha (deg) Cl Cd
-180.0 -10.91778950913322 0.9950316146096614
-179.49930458970792 -10.928202198613281 0.9926718517574589
-178.99860917941587 -10.938423651062744 0.9902955779447824
-178.49791376912378 -10.948453501502525 0.9879029142850841
-177.9972183588317 -10.958291384953553 0.9854939818918145
-177.49652294853965 -10.967936936436743 0.9830689018784229
-176.99582753824757 -10.977389790973014 0.9806277953583611
-176.4951321279555 -10.98664958358329 0.9781707834450777
-175.99443671766343 -10.99571594928849 0.9756979872520253
-175.49374130737135 -11.004588523109533 0.9732095278926542
-174.99304589707927 -11.013266940067338 0.9707055264804154
-174.49235048678722 -11.021750835182827 0.9681861041287578
-173.99165507649514 -11.030039843476924 0.9656513819511323
-173.49095966620305 -11.038133599970541 0.9631014810609901
-172.990264255911 -11.046031739684604 0.9605365225717817
-172.48956884561892 -11.053733897640035 0.9579566275969578
-171.98887343532684 -11.061239708857746 0.9553619172499683
-171.48817802503476 -11.068548808358665 0.9527525126442651
-170.9874826147427 -11.07566083116371 0.9501285348932975
-170.48678720445062 -11.082575412293798 0.9474901051105151
-169.98609179415854 -11.089292186769853 0.9448373444093705
-169.4853963838665 -11.095810789612797 0.9421703739033132
-168.9847009735744 -11.102130855843543 0.9394893147057934
-168.48400556328232 -11.108252020483018 0.936794287930264
-167.98331015299027 -11.114173918552138 0.9340854146901734
-167.4826147426982 -11.119896185071825 0.9313628160989715
-166.9819193324061 -11.125418455063 0.9286266132701098
-166.48122392211405 -11.130740363546586 0.9258769273170397
-165.98052851182197 -11.135861545543493 0.9231138793532114
-165.4798331015299 -11.140781636074651 0.9203375904920748
-164.97913769123784 -11.145500270160978 0.9175481818470796
-164.47844228094576 -11.15001708282339 0.9147457745316792
-163.97774687065368 -11.154331709082815 0.9119304896593206
-163.47705146036162 -11.158443783960166 0.909102448343456
-162.97635605006954 -11.162352942476364 0.9062617716975376
-162.47566063977746 -11.166058819652335 0.9034085808350154
-161.9749652294854 -11.169561050508994 0.900542996869337
-161.47426981919332 -11.172859270067258 0.8976651409139551
-160.97357440890124 -11.175953113348056 0.8947751340823213
-160.4728789986092 -11.178842215372304 0.8918730974878843
-159.9721835883171 -11.18152621116092 0.8889591522440945
-159.47148817802503 -11.18400473573483 0.886033419464404
-158.97079276773297 -11.18627742411495 0.883096020262264
-158.4700973574409 -11.188343911322194 0.8801470757511214
-157.9694019471488 -11.190203832377497 0.8771867070444301
-157.46870653685676 -11.191856822301768 0.8742150352556397
-156.96801112656468 -11.19330251611593 0.8712321814981996
-156.4673157162726 -11.194540548840903 0.8682382668855624
-155.96662030598054 -11.19557055549761 0.865233412531178
-155.46592489568846 -11.196392171106966 0.8622177395484956
-154.96522948539638 -11.197005030689896 0.8591913690509667
-154.46453407510432 -11.19740876926732 0.8561544221520432
-153.96383866481224 -11.197603021860152 0.8531070199651722
-153.46314325452016 -11.197587423489322 0.8500492836038087
-152.9624478442281 -11.197361609175742 0.8469813341814003
-152.46175243393603 -11.196925213940334 0.843903292811397
-151.96105702364395 -11.196277872804023 0.8408152806072517
-151.4603616133519 -11.195419220787725 0.8377174186824132
-150.9596662030598 -11.194348892912359 0.8346098281503336
-150.45897079276773 -11.19306652419885 0.831492630124461
-149.95827538247568 -11.191571749668112 0.8283659457182488
-149.4575799721836 -11.189864204341072 0.825229896045145
-148.9568845618915 -11.187943523238642 0.8220846022186024
-148.45618915159943 -11.18580934138175 0.818930185352071
-147.95549374130738 -11.183461293791314 0.8157667665589998
-147.4547983310153 -11.18089901548825 0.8125944669528398
-146.95410292072324 -11.178122141493485 0.8094134076470434
-146.45340751043116 -11.175130306827937 0.8062237097550593
-145.95271210013908 -11.171923146512517 0.8030254943903383
-145.452016689847 -11.168500295568162 0.7998188826663326
-144.95132127955495 -11.164861389015782 0.7966039956964908
-144.45062586926286 -11.161006061876293 0.793380954594264
-143.94993045897078 -11.156933949170627 0.7901498804731015
-143.44923504867873 -11.152644685919695 0.7869108944464562
-142.94853963838665 -11.148137907144418 0.7836641176277794
-142.44784422809457 -11.143413247865723 0.7804096711305197
-141.9471488178025 -11.138470343104524 0.7771476760681262
-141.44645340751043 -11.133308827881741 0.7738782535540514
-140.94575799721835 -11.127928337218298 0.7706015247017444
-140.44506258692627 -11.122328506135116 0.7673176106246595
-139.94436717663422 -11.116508969653106 0.7640266324362432
-139.44367176634213 -11.110469362793202 0.760728711249949
-138.94297635605005 -11.104209320576313 0.757423968179225
-138.442280945758 -11.097728478023361 0.7541125243375228
-137.94158553546592 -11.091026470155272 0.7507945008382926
-137.44089012517384 -11.084102931992962 0.747470018794985
-136.94019471488178 -11.07695749855735 0.7441391993210527
-136.4394993045897 -11.069589804869361 0.740802163529942
-135.93880389429762 -11.06199948594991 0.7374590325351074
-135.43810848400557 -11.054186176819917 0.7341099274499969
-134.9374130737135 -11.046149512500309 0.7307549693880624
-134.4367176634214 -11.037889128012 0.7273942794627528
-133.93602225312935 -11.029404658375912 0.7240279787875217
-133.43532684283727 -11.020695738612966 0.7206561884758171
-132.9346314325452 -11.011762003744083 0.7172790296410909
-132.43393602225314 -11.002603088790176 0.713896623396792
-131.93324061196105 -10.993218628772176 0.7105090908563723
-131.43254520166897 -10.983608258711 0.7071165531332824
-130.93184979137692 -10.973771613627559 0.7037191313409723
-130.43115438108484 -10.963708328542785 0.7003169465928929
-129.93045897079276 -10.953418038477594 0.696910120002495
-129.4297635605007 -10.942900378452903 0.6934987726832285
-128.92906815020862 -10.932154983489639 0.6900830257485433
-128.42837273991654 -10.921181488608717 0.686663000311893
-127.92767732962449 -10.909979528831057 0.6832388174867248
-127.4269819193324 -10.898548739177583 0.6798105983864895
-126.92628650904032 -10.886888754669211 0.6763784641246389
-126.42559109874827 -10.874999210326862 0.6729425358146246
-125.92489568845619 -10.862879741171461 0.6695029345698948
-125.42420027816411 -10.850529982223925 0.6660597815039022
-124.92350486787205 -10.837949568505174 0.6626131977300949
-124.42280945757997 -10.825138135036122 0.6591633043619245
-123.92211404728789 -10.8120953168377 0.6557102225128446
-123.42141863699584 -10.798820748930824 0.6522540732962998
-122.92072322670376 -10.785314066336412 0.6487949778257454
-122.42002781641168 -10.771574904075388 0.6453330572146303
-121.91933240611961 -10.757602897168669 0.6418684325764055
-121.41863699582754 -10.743397680637173 0.6384012250245199
-120.91794158553546 -10.728958889501827 0.6349315556724253
-120.41724617524339 -10.71428615878355 0.6314595456335734
-119.91655076495132 -10.699379123503252 0.6279853160214133
-119.41585535465924 -10.68423741868187 0.6245089879493966
-118.91515994436718 -10.66886067934031 0.6210306825309724
-118.41446453407511 -10.653248540499497 0.6175505208795915
-117.91376912378303 -10.637400637180354 0.6140686241087057
-117.41307371349096 -10.6213166044038 0.6105851133317648
-116.91237830319889 -10.604996077190753 0.6071001096622188
-116.41168289290681 -10.588438690562134 0.6036137342135195
-115.91098748261474 -10.571644079538865 0.6001261080991167
-115.41029207232268 -10.554611879141861 0.5966373524324622
-114.9095966620306 -10.537341724392052 0.5931475883270023
-114.40890125173853 -10.51983325031035 0.5896569368961933
-113.90820584144646 -10.502086091917674 0.5861655192534814
-113.40751043115438 -10.48409988423495 0.5826734565123184
-112.90681502086231 -10.465874262283098 0.5791808697861569
-112.40611961057024 -10.447408861083032 0.5756878801884451
-111.90542420027816 -10.42870331565568 0.5721946088326346
-111.4047287899861 -10.409757261021959 0.5687011768321764
-110.90403337969401 -10.390570332202783 0.5652077053005193
-110.40333796940195 -10.371142164219084 0.5617143153511144
-109.90264255910988 -10.351472392091774 0.5582211280974132
-109.4019471488178 -10.331560650841771 0.5547282646528657
-108.90125173852573 -10.311406575490007 0.5512358461309237
-108.40055632823366 -10.291009801057394 0.5477439936450352
-107.89986091794158 -10.270369962564846 0.5442528283086512
-107.39916550764951 -10.249486695033296 0.540762471235225
-106.89847009735745 -10.228359633483661 0.537273043538204
-106.39777468706536 -10.20698841293685 0.5337846663310399
-105.8970792767733 -10.185372668413798 0.5302974607271844
-105.39638386648123 -10.163512034935419 0.5268115478400874
-104.89568845618915 -10.141406147522629 0.5233270487831971
-104.39499304589708 -10.119054641196357 0.5198440846699679
-103.89429763560501 -10.09645715097752 0.5163627766138479
-103.39360222531293 -10.073613311887028 0.5128832457282888
-102.89290681502086 -10.050522758945819 0.5094056131267397
-102.3922114047288 -10.027185127174802 0.5059299999226532
-101.89151599443672 -10.003600051594896 0.5024565272294756
-101.39082058414465 -9.97976716722703 0.49898531616066416
-100.89012517385257 -9.955686109092118 0.4955164878296659
-100.3894297635605 -9.931356512211076 0.4920501633499282
-99.88873435326843 -9.906778011604837 0.48858646383490717
-99.38803894297635 -9.881950242294307 0.485125510398051
-98.88734353268428 -9.856872839300413 0.4816674241528079
-98.38664812239222 -9.83154543764408 0.47821232621263216
-97.88595271210013 -9.805967672346219 0.47476033769097287
-97.38525730180807 -9.780139178427758 0.47131157970128085
-96.884561891516 -9.75405959090961 0.46786617335700603
-96.38386648122392 -9.7277285448127 0.46442423977159836
-95.88317107093185 -9.701145675157951 0.4609859000585113
-95.38247566063978 -9.674310616966272 0.45755127533119305
-94.8817802503477 -9.647223005258597 0.4541204867030935
-94.38108484005564 -9.619882475055833 0.4506936552876653
-93.88038942976357 -9.592288661378914 0.44727090219835747
-93.37969401947149 -9.56444119924875 0.44385234854861816
-92.87899860917942 -9.536339723686263 0.4404381154519053
-92.37830319888734 -9.507983869712378 0.43702832402166353
-91.87760778859527 -9.479373272348012 0.43362309537134364
-91.3769123783032 -9.45050756661408 0.4302225506143991
-90.87621696801112 -9.421386387531507 0.4268268108642764
-90.37552155771905 -9.392009370121217 0.42343599723443154
-89.87482614742699 -9.36237614940413 0.4200502308383092
-89.3741307371349 -9.332486360401154 0.41666963278936203
-88.87343532684284 -9.302339638133224 0.41329432420104434
-88.37273991655077 -9.271935617621251 0.40992442618680075
-87.87204450625869 -9.241273933886157 0.40656005986008653
-87.37134909596662 -9.21035422194887 0.40320134633434807
-86.87065368567455 -9.1791761168303 0.3998484067230406
-86.36995827538247 -9.14773925355137 0.3965013621396097
-85.8692628650904 -9.116043267133003 0.39316033369750963
-85.36856745479834 -9.08408779259612 0.3898254425101913
-84.86787204450626 -9.051872464961631 0.38649680969110195
-84.36717663421419 -9.01939691925047 0.3831745563536942
-83.86648122392211 -8.986660790483553 0.3798588036114206
-83.36578581363004 -8.953663713681793 0.3765496725777267
-82.86509040333797 -8.920405323866119 0.37324728436606597
-82.36439499304589 -8.886885256057445 0.369951760089891
-81.86369958275382 -8.853103145276696 0.3666632208626473
-81.36300417246176 -8.81905862654479 0.3633817877977901
-80.86230876216968 -8.784751334882644 0.36010758200876497
-80.36161335187761 -8.750180905311188 0.35684072460903066
-79.86091794158554 -8.715346972851327 0.35358133671202824
-79.36022253129346 -8.680249172523999 0.35032953943121564
-78.85952712100139 -8.644887139350113 0.34708545388003836
-78.35883171070932 -8.609260508350586 0.343849201171949
-77.85813630041724 -8.573368914546348 0.34062090242040016
-77.35744089012518 -8.537211992958317 0.33740067873884
-76.85674547983311 -8.500789378607406 0.33418865124071667
-76.35605006954103 -8.464100706514541 0.33098494103948634
-75.85535465924896 -8.427145611700643 0.32778966924859537
-75.35465924895689 -8.389923729186629 0.3246029569814955
-74.85396383866481 -8.352434693993425 0.3214249253516384
-74.35326842837274 -8.314678141141949 0.31825569547247406
-73.85257301808066 -8.276653705653109 0.3150953884574515
-73.3518776077886 -8.238361022547844 0.3119441254200224
-72.85118219749653 -8.199799726847067 0.3088020274736368
-72.35048678720445 -8.160969453571687 0.30566921573174716
-71.84979137691238 -8.121869837742642 0.3025458113078017
-71.34909596662031 -8.082500514380845 0.2994319353152513
-70.84840055632823 -8.042861118507213 0.2963277088675494
-70.34770514603616 -8.002951285142666 0.29323325307814235
-69.8470097357441 -7.962770649308128 0.2901486890604837
-69.34631432545201 -7.922318846024519 0.28707413792802067
-68.84561891515995 -7.881595510312765 0.2840097207942068
-68.34492350486788 -7.840600277193774 0.2809555587724946
-67.8442280945758 -7.799332781688472 0.2779117729763297
-67.34353268428373 -7.757792658817772 0.27487848451916547
-66.84283727399166 -7.715979543602616 0.271855814514451
-66.34214186369958 -7.673893071063896 0.2688438840756398
-65.84144645340751 -7.631532876222556 0.2658428143161791
-65.34075104311543 -7.588898594099506 0.2628527263495198
-64.84005563282336 -7.545989859715656 0.2598737412891144
-64.3393602225313 -7.502806308091939 0.256905980248412
-63.838664812239216 -7.45934757424928 0.2539495643408634
-63.33796940194715 -7.415613293208581 0.2510046146799186
-62.83727399165508 -7.3716030999907876 0.24807125237902922
-62.336578581363 -7.3273166296167975 0.24514959855164525
-61.83588317107093 -7.2827535171075315 0.2422397743112184
-61.335187760778865 -7.237913397483924 0.2393419007711986
-60.834492350486784 -7.1927959057668875 0.2364560990450349
-60.333796940194716 -7.147400676977343 0.23358249024618077
-59.83310152990265 -7.101727346136213 0.23072119548808262
-59.33240611961057 -7.055775548264416 0.2278723358841966
-58.8317107093185 -7.009544918382867 0.2250360325479655
-58.33101529902643 -6.963035091512497 0.22221240659284464
-57.83031988873435 -6.916245702674212 0.21940157913228836
-57.329624478442284 -6.86917638688894 0.21660367127974217
-56.82892906815022 -6.821826779177611 0.21381880414865512
-56.328233657858135 -6.774196514561131 0.21104709885248246
-55.82753824756607 -6.726285228060421 0.20828867650467237
-55.326842837273986 -6.6780925546964145 0.20554365821867565
-54.82614742698192 -6.6296181294900105 0.20281216510794314
-54.32545201668985 -6.5808615874621434 0.2000943182859221
-53.82475660639777 -6.531822563633741 0.1973902388660687
-53.3240611961057 -6.482500693025708 0.19470004796182933
-52.823365785813635 -6.432895610658969 0.19202386668665566
-52.322670375521554 -6.383006951554444 0.18936181615400122
-51.82197496522949 -6.332834350733053 0.18671401747731325
-51.321279554937405 -6.282377443215717 0.1840805917700426
-50.82058414464535 -6.231635864023366 0.1814616601456392
-50.31988873435327 -6.180609248176909 0.17885734371755563
-49.81919332406119 -6.129297230697263 0.17626776359924096
-49.318497913769136 -6.07769944660536 0.1736930409041469
-48.817802503477054 -6.025815530922104 0.17113329674572247
-48.31710709318497 -5.973645118668427 0.16858865223741942
-47.81641168289292 -5.921187844865253 0.16605922849268767
-47.31571627260084 -5.868443344533501 0.1635451466249807
-46.81502086230876 -5.815411252694078 0.16104652774774225
-46.3143254520167 -5.762091204367914 0.15856349297442845
-45.81363004172462 -5.708482834575927 0.15609616341848925
-45.31293463143254 -5.6545857783390385 0.15364466019337458
-44.81223922114049 -5.600399670678174 0.1512091044125335
-44.311543810848406 -5.545924146614249 0.14878961718941947
-43.810848400556324 -5.491158841168174 0.14638631963748067
-43.31015299026427 -5.436103389360889 0.14399933287016792
-42.80945757997219 -5.380757426213295 0.14162877800093115
-42.30876216968011 -5.325120586746317 0.13927477614322564
-41.808066759388026 -5.269192505980884 0.1369374484104951
-41.30737134909597 -5.212972818937919 0.1346169159161948
-40.80667593880389 -5.156461160638324 0.13231329977377376
-40.30598052851181 -5.0996571661030305 0.13002672109668195
-39.80528511821976 -5.042560470352969 0.12775730099837285
-39.304589707927676 -4.9851707084090275 0.12550516059229194
-38.803894297635594 -4.9274875152921584 0.12327042099189361
-38.30319888734354 -4.869510526023278 0.12105320331062691
-37.80250347705146 -4.811239375623289 0.11885362866194443
-37.30180806675938 -4.752673699113119 0.11667181815929167
-36.801112656467325 -4.693813131513709 0.11450789291612568
-36.30041724617524 -4.634657307845936 0.11236197404589371
-35.79972183588316 -4.575205863130753 0.11023418266204482
-35.29902642559111 -4.515458432389087 0.1081246398780325
-34.79833101529903 -4.4554146506418295 0.10603346680730491
-34.297635605006946 -4.395074152909922 0.10396078456331465
-33.79694019471489 -4.334436574214282 0.10190671425951253
-33.29624478442281 -4.273501549575807 0.09987137700934584
-32.79554937413073 -4.212268714015442 0.09785489392626984
-32.294853963838676 -4.150737702554119 0.0958573861237309
-31.794158553546595 -4.088908150212719 0.09387897471518164
-31.293463143254513 -4.026779692012193 0.09191978081407198
-30.79276773296246 -3.964351962973454 0.08997992553385364
-30.29207232267038 -3.9016245981174094 0.0880595299879739
-29.791376912378297 -3.838597232464989 0.08615871528988622
-29.290681502086244 -3.775269501037131 0.08427760255304234
-28.789986091794162 -3.7116410388547236 0.08241631289088863
-28.28929068150208 -3.647711480938701 0.08057496741688036
-27.788595271210028 -3.5834804623099976 0.07875368724446569
-27.287899860917946 -3.518947617989498 0.07695259348709277
-26.787204450625865 -3.454112582998158 0.0751718072582151
-26.28650904033381 -3.388974992356894 0.07341144967128527
-25.78581363004173 -3.323534481086598 0.07167164183975144
-25.28511821974965 -3.2577906842082185 0.0699525048770609
-24.784422809457595 -3.1917432367426755 0.06825415989666977
-24.283727399165514 -3.1253917737108536 0.06657672801202358
-23.783031988873432 -3.0587359301337087 0.06492033033657757
-23.28233657858135 -2.991775341032161 0.06328508798377813
-22.781641168289298 -2.924509641427123 0.06167112206707964
-22.280945757997216 -2.856938466339501 0.060078553699932036
-21.780250347705135 -2.789061450790237 0.058507503995782584
-21.27955493741308 -2.720878229800229 0.056958094068084775
-20.778859527121 -2.652388438390419 0.055430445030287656
-20.27816411682892 -2.5835917115817195 0.05392467799584383
-19.777468706536865 -2.514487684395051 0.052440914078199674
-19.276773296244784 -2.44507599185132 0.050979274390812235
-18.776077885952702 -2.375356268971474 0.04953988004712612
-18.27538247566065 -2.3053281507764054 0.04812285216059392
-17.774687065368568 -2.2349912722870484 0.04672831184466825
-17.273991655076486 -2.164345268524323 0.04535638021279548
-16.773296244784433 -2.09338977450915 0.04400717837842999
-16.27260083449235 -2.0221244252624486 0.04268082745502083
-15.77190542420027 -1.9505488558051325 0.04137744855601794
-15.271210013908217 -1.8786627011581287 0.0400971627948748
-14.770514603616135 -1.8064655963423575 0.038840091285036016
-14.269819193324054 -1.733957176378739 0.03760635513995775
-13.769123783032 -1.6611370762881932 0.036396075473087264
-13.268428372739919 -1.5880049310916333 0.035209373397877164
-12.767732962447838 -1.5145603758099937 0.03404637002777916
-12.267037552155784 -1.4408030454641731 0.032907186476239636
-11.766342141863703 -1.3667325750751131 0.03179194385671119
-11.265646731571621 -1.2923485996637267 0.030700763282645538
-10.764951321279568 -1.2176507542509412 0.0296337658674935
-10.264255910987487 -1.1426386738576553 0.02859107272470235
-9.763560500695405 -1.0673119935048105 0.02757280496772646
-9.262865090403352 -0.9916703482133058 0.02657908371001133
-8.76216968011127 -0.9157133730040896 0.025610030065014
