Polar data for 1 at Re = 100000.0
Alpha (deg) Cl Cd
-180.0 -7.956882222525983 0.4126840003727531
-179.49930458970792 -7.961735186684293 0.41172767266912336
-178.99860917941587 -7.966445707922962 0.41076574561596124
-178.49791376912378 -7.971013681883979 0.40979825953283255
-177.9972183588317 -7.975439004209325 0.40882525473930353
-177.49652294853965 -7.9797215705409785 0.40784677155494
-176.99582753824757 -7.983861276520931 0.4068628502993078
-176.4951321279555 -7.987858017791159 0.40587353129197357
-175.99443671766343 -7.991711689993648 0.40487885485250275
-175.49374130737135 -7.995422188770381 0.40387886130046147
-174.99304589707927 -7.9989894097633405 0.4028735909554165
-174.49235048678722 -8.002413248614513 0.4018630841369327
-173.99165507649514 -8.005693600965877 0.40084738116457685
-173.49095966620305 -8.008830362459417 0.3998265223579146
-172.990264255911 -8.011823428737117 0.3988005480365119
-172.48956884561892 -8.014672695440957 0.39776949851993526
-171.98887343532684 -8.017378058212927 0.39673341412775043
-171.48817802503476 -8.019939412695006 0.3956923351795233
-170.9874826147427 -8.022356654529172 0.3946463019948204
-170.48678720445062 -8.024629679357417 0.39359535489320707
-169.98609179415854 -8.026758382821718 0.3925395341942496
-169.4853963838665 -8.02874266056406 0.3914788802175141
-168.9847009735744 -8.03058240822643 0.3904134332825663
-168.48400556328232 -8.032277521450805 0.38934323370897295
-167.98331015299027 -8.03382789587917 0.3882683218162991
-167.4826147426982 -8.03523342715351 0.3871887379241118
-166.9819193324061 -8.036494010915806 0.386104522351976
-166.48122392211405 -8.037609542808042 0.38501571541945834
-165.98052851182197 -8.038579918472205 0.38392235744612513
-165.4798331015299 -8.03940503355027 0.3828244887515416
-164.97913769123784 -8.040084783684225 0.3817221496552742
-164.47844228094576 -8.04061906451605 0.38061538047688936
-163.97774687065368 -8.041007771687735 0.379504221535952
-163.47705146036162 -8.041250800841258 0.37838871315202904
-162.97635605006954 -8.041348047618598 0.37726889564468624
-162.47566063977746 -8.04129940766175 0.3761448093334899
-161.9749652294854 -8.041104776612688 0.37501649453800556
-161.47426981919332 -8.040764050113392 0.3738839915777993
-160.97357440890124 -8.040277123805854 0.37274734077243765
-160.4728789986092 -8.039643893332052 0.37160658244148614
-159.9721835883171 -8.038864254333973 0.3704617569045109
-159.47148817802503 -8.037938102453595 0.36931290448107823
-158.97079276773297 -8.036865333332905 0.3681600654907541
-158.4700973574409 -8.035645842613885 0.3670032802531037
-157.9694019471488 -8.034279525938512 0.3658425890876943
-157.46870653685676 -8.032766278948781 0.3646780323140909
-156.96801112656468 -8.031105997286673 0.36350965025186033
-156.4673157162726 -8.029298576594158 0.3623374832205676
-155.96662030598054 -8.027343912513235 0.3611615715397797
-155.46592489568846 -8.02524190068588 0.35998195552906254
-154.96522948539638 -8.022992436754073 0.3587986755079816
-154.46453407510432 -8.020595416359804 0.35761177179610326
-153.96383866481224 -8.018050735145053 0.3564212847129934
-153.46314325452016 -8.015358288751798 0.35522725457821835
-152.9624478442281 -8.012517972822032 0.35402972171134406
-152.46175243393603 -8.00952968299773 0.35282872643193597
-151.96105702364395 -8.006393314920881 0.35162430905956066
-151.4603616133519 -8.003108764233463 0.35041650991378426
-150.9596662030598 -7.999675926577461 0.34920536931417223
-150.45897079276773 -7.996094697594862 0.34799092758029115
-149.95827538247568 -7.992364972927645 0.34677322503170693
-149.4575799721836 -7.988486648217788 0.34555230198798503
-148.9568845618915 -7.9844596191072865 0.34432819876869203
-148.45618915159943 -7.980283781238113 0.34310095569339405
-147.95549374130738 -7.975959030252258 0.3418706130816568
-147.4547983310153 -7.971485261791702 0.34063721125304636
-146.95410292072324 -7.966862371498421 0.3394007905271289
-146.45340751043116 -7.96209025501441 0.3381613912234701
-145.95271210013908 -7.957168807981643 0.3369190536616361
-145.452016689847 -7.95209792604211 0.33567381816119346
-144.95132127955495 -7.946877504837791 0.33442572504170764
-144.45062586926286 -7.941507440010667 0.33317481462274456
-143.94993045897078 -7.935987627202722 0.3319211272238701
-143.44923504867873 -7.930317962055942 0.33066470316465135
-142.94853963838665 -7.924498340212307 0.3294055827646537
-142.44784422809457 -7.9185286573138045 0.32814380634344287
-141.9471488178025 -7.912408809002408 0.326879414220585
-141.44645340751043 -7.9061386909201135 0.32561244671564593
-140.94575799721835 -7.899718198708896 0.32434294414819254
-140.44506258692627 -7.893147228010739 0.3230709468377898
-139.94436717663422 -7.886425674467627 0.32179649510400454
-139.44367176634213 -7.8795534337215445 0.3205196292664029
-138.94297635605005 -7.872530401414472 0.3192403896445496
-138.442280945758 -7.8653564731883945 0.31795881655801195
-137.94158553546592 -7.858031544685294 0.3166749503263556
-137.44089012517384 -7.850555511547154 0.3153888312691463
-136.94019471488178 -7.842928269415959 0.31410049970595055
-136.4394993045897 -7.835149713933688 0.3128099959563341
-135.93880389429762 -7.827219740742328 0.31151736033986255
-135.43810848400557 -7.819138245483862 0.310222633176103
-134.9374130737135 -7.810905123800269 0.3089258547846202
-134.4367176634214 -7.802520271333539 0.30762706548498076
-133.93602225312935 -7.793983583725647 0.3063263055967512
-133.43532684283727 -7.785294956618585 0.30502361543949685
-132.9346314325452 -7.776454285654327 0.303719035332784
-132.43393602225314 -7.767461466474864 0.3024126055961788
-131.93324061196105 -7.758316394722175 0.30110436654924666
-131.43254520166897 -7.749018966038242 0.2997943585115542
-130.93184979137692 -7.739569076065053 0.2984826218026674
-130.43115438108484 -7.7299666204445865 0.29716919674215203
-129.93045897079276 -7.720211494818828 0.29585412364957453
-129.4297635605007 -7.710303594829759 0.2945374428445001
-128.92906815020862 -7.700242816119364 0.2932191946464956
-128.42837273991654 -7.690029054329622 0.2918994193751271
-127.92767732962449 -7.679662205102525 0.29057815734995984
-127.4269819193324 -7.6691421640800455 0.2892554488905602
-126.92628650904032 -7.658468826904174 0.2879313343164941
-126.42559109874827 -7.6476420892168955 0.2866058539473285
-125.92489568845619 -7.636661846660183 0.28527904810262783
-125.42420027816411 -7.6255279948760295 0.2839509571019593
-124.92350486787205 -7.614240429506414 0.2826216212648883
-124.42280945757997 -7.602799046193316 0.2812910809109813
-123.92211404728789 -7.591203740578728 0.27995937635980483
-123.42141863699584 -7.579454408304623 0.27862654793092345
-122.92072322670376 -7.567550945012992 0.27729263594390396
-122.42002781641168 -7.555493246345814 0.2759576807183123
-121.91933240611961 -7.543281207945072 0.27462172257371475
-121.41863699582754 -7.53091472545275 0.2732848018296773
-120.91794158553546 -7.51839369451083 0.27194695880576514
-120.41724617524339 -7.5057180107613 0.27060823382154553
-119.91655076495132 -7.492887569846139 0.26926866719658415
-119.41585535465924 -7.4799022674073266 0.2679282992504465
-118.91515994436718 -7.466761999086855 0.2665871703026982
-118.41446453407511 -7.453466660526698 0.26524532067290696
-117.91376912378303 -7.440016147368843 0.26390279068063716
-117.41307371349096 -7.426410355255277 0.26255962064545624
-116.91237830319889 -7.412649179827977 0.2612158508869288
-116.41168289290681 -7.398732516728924 0.2598715217246216
-115.91098748261474 -7.384660261600112 0.258526673478101
-115.41029207232268 -7.370432310083513 0.257181346466932
-114.9095966620306 -7.356048557821116 0.25583558101068127
-114.40890125173853 -7.3415089004549055 0.2544894174289153
-113.90820584144646 -7.326813233626857 0.2531428960411989
-113.40751043115438 -7.31196145297896 0.2517960571670993
-112.90681502086231 -7.296953454153198 0.25044894112618177
-112.40611961057024 -7.281789132791547 0.24910158823801243
-111.90542420027816 -7.266468384536 0.24775403882215785
-111.4047287899861 -7.250991105028533 0.2464063331981835
-110.90403337969401 -7.2353571899111335 0.24505851168565507
-110.40333796940195 -7.219566534825783 0.24371061460413979
-109.90264255910988 -7.20361903541446 0.24236268227320223
-109.4019471488178 -7.187514587319154 0.24101475501240965
-108.90125173852573 -7.171253086181845 0.23966687314132706
-108.40055632823366 -7.154834427644519 0.23831907697952126
-107.89986091794158 -7.138258507349158 0.2369714068465577
-107.39916550764951 -7.12152522093774 0.23562390306200298
-106.89847009735745 -7.104634464052256 0.234276605945423
-106.39777468706536 -7.087586132334681 0.23292955581638275
-105.8970792767733 -7.070380121427008 0.23158279299444995
-105.39638386648123 -7.053016326971213 0.2302363577991896
-104.89568845618915 -7.035494644609279 0.22889029055016719
-104.39499304589708 -7.017814969983195 0.22754463156694993
-103.89429763560501 -6.999977198734936 0.2261994211691042
-103.39360222531293 -6.9819812265064884 0.22485469967619387
-102.89290681502086 -6.963826948939837 0.22351050740778666
-102.3922114047288 -6.94551426167697 0.22216688468344847
-101.89151599443672 -6.927043060359854 0.22082387182274432
-101.39082058414465 -6.908413240630492 0.21948150914524234
-100.89012517385257 -6.8896246981308495 0.21813983697050576
-100.3894297635605 -6.870677328502922 0.2167988956181025
-99.88873435326843 -6.851571027388691 0.21545872540759847
-99.38803894297635 -6.83230569043013 0.2141193666585589
-98.88734353268428 -6.812881213269237 0.21278085969054994
-98.38664812239222 -6.793297491547986 0.21144324482313837
-97.88595271210013 -6.773554420908355 0.2101065623758892
-97.38525730180807 -6.753651896992342 0.20877085266836992
-96.884561891516 -6.733589815441914 0.2074361560201451
-96.38386648122392 -6.713368071899063 0.20610251275078106
-95.88317107093185 -6.692986562005776 0.20476996317984464
-95.38247566063978 -6.672445181404027 0.2034385476269006
-94.8817802503477 -6.6517438257358 0.20210830641151556
-94.38108484005564 -6.630882390643085 0.20077927985325605
-93.88038942976357 -6.609860771767861 0.19945150827168756
-93.37969401947149 -6.588678864752112 0.19812503198637554
-92.87899860917942 -6.5673365652378175 0.19679989131688724
-92.37830319888734 -6.545833768866967 0.1954761265827879
-91.87760778859527 -6.5241703712815395 0.19415377810364431
-91.3769123783032 -6.502346268123518 0.1928328861990215
-90.87621696801112 -6.480361355034888 0.19151349118848604
-90.37552155771905 -6.45821552765763 0.1901956333916036
-89.87482614742699 -6.435908681633728 0.1888793531279408
-89.3741307371349 -6.4134407126051665 0.1875646907170626
-88.87343532684284 -6.390811516213923 0.18625168647853607
-88.37273991655077 -6.36802098810199 0.18494038073192687
-87.87204450625869 -6.345069023911347 0.18363081379680135
-87.37134909596662 -6.321955519283965 0.18232302599272476
-86.87065368567455 -6.29868036986185 0.1810170576392639
-86.36995827538247 -6.275243471286967 0.179712949055984
-85.8692628650904 -6.251644719201303 0.17841074056245187
-85.36856745479834 -6.227884009246851 0.17711047247823297
-84.86787204450626 -6.203961237065578 0.17581218512289387
-84.36717663421419 -6.17987629829948 0.17451591881600026
-83.86648122392211 -6.155629088590538 0.1732217138771176
-83.36578581363004 -6.131219503580728 0.17192961062581358
-82.86509040333797 -6.106647438912039 0.17063964938165233
-82.36439499304589 -6.081912790226451 0.16935187046420108
-81.86369958275382 -6.0570154531659535 0.16806631419302487
-81.36300417246176 -6.031955323372515 0.16678302088769048
-80.86230876216968 -6.006732296488136 0.16550203086776383
-80.36161335187761 -5.9813462681547955 0.1642233844528106
-79.86091794158554 -5.955797134014468 0.16294712196239736
-79.36022253129346 -5.930084789709146 0.16167328371609024
-78.85952712100139 -5.904209130880809 0.16040191003345383
-78.35883171070932 -5.878170053171432 0.1591330412340558
-77.85813630041724 -5.851967452223012 0.1578667176374614
-77.35744089012518 -5.825601223677531 0.1566029795632372
-76.85674547983311 -5.799071263176956 0.15534186733094846
-76.35605006954103 -5.772377466363289 0.1540834212601615
-75.85535465924896 -5.745519728878503 0.15282768167044225
-75.35465924895689 -5.718497946364583 0.15157468888135706
-74.85396383866481 -5.691312014463514 0.15032448321247183
-74.35326842837274 -5.663961828817279 0.14907710498335291
-73.85257301808066 -5.63644728506785 0.1478325945135649
-73.3518776077886 -5.608768278857235 0.14659099212267634
-72.85118219749653 -5.58092470582739 0.14535233813025006
-72.35048678720445 -5.552916461620311 0.1441166728558546
-71.84979137691238 -5.524743441877981 0.14288403661905502
-71.34909596662031 -5.496405542242386 0.1416544697394181
-70.84840055632823 -5.467902658355507 0.14042801253650794
-70.34770514603616 -5.4392346858593195 0.1392047053298936
-69.8470097357441 -5.4104015203958165 0.1379845884391383
-69.34631432545201 -5.381403057606971 0.13676770218380885
-68.84561891515995 -5.352239193134783 0.13555408688347248
-68.34492350486788 -5.322909822621221 0.13434378285769377
-67.8442280945758 -5.293414841708267 0.13313683042603952
-67.34353268428373 -5.263754146037916 0.1319332699080752
-66.84283727399166 -5.233927631252141 0.13073314162336758
-66.34214186369958 -5.203935192992927 0.1295364858914817
-65.84144645340751 -5.173776726902262 0.12834334303198347
-65.34075104311543 -5.143452128622127 0.12715375336444057
-64.84005563282336 -5.112961293794496 0.12596775720841757
-64.3393602225313 -5.082304118061367 0.12478539488348084
-63.838664812239216 -5.051480497064714 0.12360670670919716
-63.33796940194715 -5.0204903264465175 0.12243173300513155
-62.83727399165508 -4.9893335018487734 0.12126051409085037
-62.336578581363 -4.958009918913452 0.12009309028591864
-61.83588317107093 -4.926519473282537 0.11892950190990403
-61.335187760778865 -4.894862060598027 0.11776978928237292
-60.834492350486784 -4.863037576501882 0.11661399272288897
-60.333796940194716 -4.831045916636101 0.11546215255102033
-59.83310152990265 -4.798886976642664 0.11431430908633156
-59.33240611961057 -4.766560652163553 0.11317050264838946
-58.8317107093185 -4.734066838840751 0.11203077355676039
-58.33101529902643 -4.70140543231624 0.11089516213100936
-57.83031988873435 -4.668576328232004 0.10976370869070273
-57.329624478442284 -4.635579422230028 0.10863645355540774
-56.82892906815022 -4.602414609952292 0.10751343704468896
-56.328233657858135 -4.569081787040784 0.10639469947811275
-55.82753824756607 -4.535580849137479 0.10528028117524502
-55.326842837273986 -4.501911691884371 0.10417022245565255
-54.82614742698192 -4.468074210923434 0.10306456363890126
-54.32545201668985 -4.4340683018966525 0.10196334504455484
-53.82475660639777 -4.3998938604460145 0.10086660699218275
-53.3240611961057 -4.365550782213501 0.09977438980134912
-52.823365785813635 -4.3310389628410855 0.09868673379161985
-52.322670375521554 -4.296358297970767 0.0976036792825622
-51.82197496522949 -4.261508683244522 0.09652526659374117
-51.321279554937405 -4.226490014304326 0.09545153604472267
-50.82058414464535 -4.191302186792176 0.09438252795507351
-50.31988873435327 -4.155945096350039 0.09331828264435915
-49.81919332406119 -4.120418638619914 0.09225884043214594
-49.318497913769136 -4.084722709243782 0.09120424163799934
-48.817802503477054 -4.0488572038636095 0.0901545265814866
-48.31710709318497 -4.012822018121395 0.08910973558217139
-47.81641168289292 -3.9766170476591194 0.08806990895962186
-47.31571627260084 -3.940242188118771 0.0870350870334039
-46.81502086230876 -3.9036973351423194 0.0860053101230821
-46.3143254520167 -3.8669823843717532 0.08498061854822414
-45.81363004172462 -3.8300972314490638 0.08396105262839504
-45.31293463143254 -3.793041772016225 0.08294665268316159
-44.81223922114049 -3.7558159017152173 0.08193745903208838
-44.311543810848406 -3.71841951618804 0.08093351199474308
-43.810848400556324 -3.680852511076652 0.07993485189069027
-43.31015299026427 -3.6431147820230594 0.07894151903949764
-42.80945757997219 -3.6052062246692325 0.07795355376072977
-42.30876216968011 -3.567126734657152 0.07697099637395344
-41.808066759388026 -3.5288762076288096 0.07599388719873368
-41.30737134909597 -3.490454539226193 0.07502226655463773
-40.80667593880389 -3.451861625091266 0.07405617476123105
-40.30598052851181 -3.4130973608660264 0.07309565213807911
-39.80528511821976 -3.3741616421924663 0.07214073900475004
-39.304589707927676 -3.3350543647125415 0.07119147568080753
-38.803894297635594 -3.295775424068254 0.07024790248581836
-38.30319888734354 -3.256324715901589 0.0693100597393489
-37.80250347705146 -3.2167021358545194 0.06837798776096415
-37.30180806675938 -3.1769075795690265 0.06745172687023138
-36.801112656467325 -3.136940942687116 0.06653131738671603
-36.30041724617524 -3.0968021208507404 0.0656167996299849
-35.79972183588316 -3.0564910097018982 0.06470821391960213
-35.29902642559111 -3.016007504882581 0.06380560057513629
-34.79833101529903 -2.9753515020347487 0.06290899991615106
-34.297635605006946 -2.9345228968004067 0.06201845226221414
-33.79694019471489 -2.893521584821536 0.061133997932890094
-33.29624478442281 -2.8523474617400995 0.06025567724774483
-32.79554937413073 -2.811000423198096 0.05938353052634737
-32.294853963838676 -2.7694803648375137 0.05851759808826007
-31.794158553546595 -2.727787182300326 0.0576579202530515
-31.293463143254513 -2.685920771228518 0.05680453734028579
-30.79276773296246 -2.6438810272640767 0.05595748966953018
-30.29207232267038 -2.60166784604898 0.05511681756035103
-29.791376912378297 -2.5592811232251984 0.05428256133231246
-29.290681502086244 -2.5167207544347514 0.05345476130498217
-28.789986091794162 -2.4739866353195916 0.052633457797925165
-28.28929068150208 -2.4310786615217035 0.05181869113070914
-27.788595271210028 -2.3879967286830963 0.05101050162289911
-27.287899860917946 -2.344740732445712 0.05020892959406009
-26.787204450625865 -2.3013105684515667 0.049414015363759334
-26.28650904033381 -2.2577061323426344 0.048625799251563184
-25.78581363004173 -2.213927319760896 0.04784432157703622
-25.28511821974965 -2.169974026348336 0.04706962265974479
-24.784422809457595 -2.1258461477469384 0.04630174281925703
-24.283727399165514 -2.081543579598674 0.045540722375134846
-23.783031988873432 -2.037066217545541 0.04478660164694903
-23.28233657858135 -1.992413957229524 0.0440394209542615
-22.781641168289298 -1.947586694292597 0.043299220616641265
-22.280945757997216 -1.9025843243767406 0.04256604095365335
-21.780250347705135 -1.85740674312395 0.041839922284861886
-21.27955493741308 -1.8120538461762061 0.04112090492983589
-20.778859527121 -1.7665255291754827 0.04040902920813949
-20.27816411682892 -1.7208216877637676 0.03970433543934038
-19.777468706536865 -1.674942217583049 0.039006863943002235
-19.276773296244784 -1.6288870142752936 0.03831665503869275
-18.776077885952702 -1.582655973482507 0.03763374904597783
-18.27538247566065 -1.5362489908466594 0.03695818628442338
-17.774687065368568 -1.4896659620097354 0.036290007073594865
-17.273991655076486 -1.4429067826137194 0.035629251733057754
-16.773296244784433 -1.3959713483005922 0.034975960582380616
-16.27260083449235 -1.3488595547123348 0.03433017394112714
-15.77190542420027 -1.3015712974909457 0.03369193212886412
-15.271210013908217 -1.2541064722783881 0.033061275465157025
-14.770514603616135 -1.2064649747166571 0.03243824426957309
-14.269819193324054 -1.1586467004477266 0.031822878861677784
-13.769123783032 -1.1106515451135914 0.03121521956103568
-13.268428372739919 -1.0624794043562256 0.030615306687214905
-12.767732962447838 -1.0141301738176205 0.030023180559780482
-12.267037552155784 -0.96560374913975 0.029438881498298763
-11.766342141863703 -0.9169000259645879 0.028862449822335656
-11.265646731571621 -0.8680188999341469 0.028293925851456625
-10.764951321279568 -0.8189602666903975 0.02773334990522891
-10.264255910987487 -0.7697240218753132 0.027180762303217088
-9.763560500695405 -0.7203100611308821 0.026636203364989286
-9.262865090403352 -0.6707182800990887 0.02609971341010786
