Polar data for a18sm at Re = 88571.42857142858
Alpha (deg) Cl Cd
-180.0 -7.317685629235075 0.3772062593804826
-179.49930458970792 -7.324353682198292 0.3764022172007806
-178.99860917941587 -7.330891013960611 0.3755932585645688
-178.49791376912378 -7.337297420274003 0.37477941559745287
-177.9972183588317 -7.343572696890445 0.37396072042504025
-177.49652294853965 -7.349716639561907 0.3731372051729369
-176.99582753824757 -7.3557290440403635 0.37230890196674904
-176.4951321279555 -7.361609706077789 0.37147584293208413
-175.99443671766343 -7.367358421426155 0.37063806019454804
-175.49374130737135 -7.372974985837435 0.3697955858797476
-174.99304589707927 -7.378459195063605 0.3689484521132895
-174.49235048678722 -7.3838108448566375 0.36809669102078
-173.99165507649514 -7.389029730968503 0.3672403347278259
-173.49095966620305 -7.394115649151179 0.36637941536003327
-172.990264255911 -7.399068395156637 0.36551396504300926
-172.48956884561892 -7.403887764736848 0.3646440159023605
-171.98887343532684 -7.408573553643792 0.3637696000636931
-171.48817802503476 -7.413125557629438 0.3628907496526135
-170.9874826147427 -7.4175435724457595 0.3620074967947291
-170.48678720445062 -7.421827393844731 0.3611198736156451
-169.98609179415854 -7.4259768175783245 0.3602279122409696
-169.4853963838665 -7.429991639398513 0.35933164479630797
-168.9847009735744 -7.433871655057275 0.35843110340726736
-168.48400556328232 -7.4376166603065785 0.3575263201994544
-167.98331015299027 -7.441226450898399 0.35661732729847506
-167.4826147426982 -7.44470082258471 0.3557041568299366
-166.9819193324061 -7.4480395711174845 0.3547868409194448
-166.48122392211405 -7.451242492248697 0.353865411692607
-165.98052851182197 -7.45430938173032 0.3529399012750295
-165.4798331015299 -7.457240035314325 0.3520103417923185
-164.97913769123784 -7.460034248752689 0.3510767653700808
-164.47844228094576 -7.462691817797386 0.3501392041339233
-163.97774687065368 -7.465212538200386 0.3491976902094521
-163.47705146036162 -7.467596205713661 0.3482522557222738
-162.97635605006954 -7.469842616089189 0.3473029327979953
-162.47566063977746 -7.471951565078945 0.34634975356222264
-161.9749652294854 -7.4739228484348965 0.3453927501405629
-161.47426981919332 -7.4757562619090185 0.3444319546586221
-160.97357440890124 -7.477451601253288 0.3434673992420072
-160.4728789986092 -7.479008662219679 0.3424991160163249
-159.9721835883171 -7.480427240560158 0.3415271371071814
-159.47148817802503 -7.481707132026705 0.3405514946401833
-158.97079276773297 -7.482848132371289 0.3395722207409375
-158.4700973574409 -7.483850037345886 0.33858934753504966
-157.9694019471488 -7.484712642702468 0.33760290714812746
-157.46870653685676 -7.485435744193009 0.3366129317057768
-156.96801112656468 -7.486019137569486 0.33561945333360454
-156.4673157162726 -7.486462618583867 0.33462250415721706
-155.96662030598054 -7.486765982988129 0.33362211630222083
-155.46592489568846 -7.486929026534244 0.33261832189422247
-154.96522948539638 -7.486951544974185 0.3316111530588286
-154.46453407510432 -7.48683333405993 0.33060064192164607
-153.96383866481224 -7.486574189543446 0.3295868206082808
-153.46314325452016 -7.486173907176707 0.32856972124434014
-152.9624478442281 -7.485632282711689 0.32754937595543
-152.46175243393603 -7.4849491119003675 0.32652581686715676
-151.96105702364395 -7.484124190494712 0.32549907610512774
-151.4603616133519 -7.483157314246694 0.3244691857949491
-150.9596662030598 -7.482048278908295 0.32343617806222746
-150.45897079276773 -7.480796880231483 0.322400085032569
-149.95827538247568 -7.479402913968232 0.32136093883158123
-149.4575799721836 -7.477866175870514 0.32031877158486943
-148.9568845618915 -7.476186461690307 0.3192736154180411
-148.45618915159943 -7.474363567179581 0.3182255024567029
-147.95549374130738 -7.4723972880903125 0.31717446482646006
-147.4547983310153 -7.470287420174469 0.316120534652921
-146.95410292072324 -7.468033759184029 0.315063744061691
-146.45340751043116 -7.465636100870964 0.31400412517837695
-145.95271210013908 -7.463094240987247 0.3129417101285852
-145.452016689847 -7.460407975284853 0.3118765310379228
-144.95132127955495 -7.4575770995157535 0.31080862003199616
-144.45062586926286 -7.454601409431926 0.30973800923641126
-143.94993045897078 -7.45148070078534 0.30866473077677536
-143.44923504867873 -7.448214769327969 0.3075888167786951
-142.94853963838665 -7.444803410811789 0.30651029936777663
-142.44784422809457 -7.441246420988773 0.3054292106696266
-141.9471488178025 -7.437543595610896 0.30434558280985113
-141.44645340751043 -7.433694730430125 0.30325944791405757
-140.94575799721835 -7.429699621198435 0.30217083810785206
-140.44506258692627 -7.425558063667807 0.3010797855168412
-139.94436717663422 -7.42126985359021 0.2999863222666317
-139.44367176634213 -7.416834786717614 0.29889048048282985
-138.94297635605005 -7.4122526588019975 0.29779229229104254
-138.442280945758 -7.407523265595327 0.2966917898168757
-137.94158553546592 -7.402646402849586 0.2955890051859369
-137.44089012517384 -7.397621866316741 0.29448397052383135
-136.94019471488178 -7.392449451748766 0.29337671795616704
-136.4394993045897 -7.387128954897638 0.2922672796085497
-135.93880389429762 -7.381660171515326 0.29115568760658594
-135.43810848400557 -7.376042897353806 0.2900419740758826
-134.9374130737135 -7.370276928165052 0.2889261711420459
-134.4367176634214 -7.364362059701034 0.2878083109306824
-133.93602225312935 -7.358298087713735 0.28668842556739915
-133.43532684283727 -7.352084807955117 0.2855665471778024
-132.9346314325452 -7.345722016177155 0.2844427078874985
-132.43393602225314 -7.339209508131828 0.28331693982209427
-131.93324061196105 -7.332547079571104 0.2821892751071964
-131.43254520166897 -7.325734526246962 0.28105974586841054
-130.93184979137692 -7.318771643911373 0.2799283842313449
-130.43115438108484 -7.3116582283163085 0.27879522232160436
-129.93045897079276 -7.304394075213744 0.2776602922647966
-129.4297635605007 -7.296978980355651 0.2765236261865278
-128.92906815020862 -7.289412739494007 0.2753852562124042
-128.42837273991654 -7.281695148380783 0.27424521446803296
-127.92767732962449 -7.273826002767955 0.27310353307902013
-127.4269819193324 -7.265805098407491 0.27196024417097275
-126.92628650904032 -7.257632231051365 0.27081537986949655
-126.42559109874827 -7.2493071964515545 0.26966897230019926
-125.92489568845619 -7.240829790360032 0.2685210535886864
-125.42420027816411 -7.23219980852877 0.267371655860565
-124.92350486787205 -7.2234170467097405 0.2662208112414415
-124.42280945757997 -7.21448130065492 0.26506855185692246
-123.92211404728789 -7.205392366116281 0.26391490983261523
-123.42141863699584 -7.196150038845794 0.26275991729412485
-122.92072322670376 -7.186754114595439 0.26160360636705904
-122.42002781641168 -7.1772043891171835 0.26044600917702376
-121.91933240611961 -7.1675006581630045 0.2592871578496261
-121.41863699582754 -7.157642717484873 0.25812708451047217
-120.91794158553546 -7.147630362834762 0.2569658212851682
-120.41724617524339 -7.137463389964647 0.2558034002993219
-119.91655076495132 -7.1271415946265 0.2546398536785388
-119.41585535465924 -7.116664772572297 0.25347521354842595
-118.91515994436718 -7.106032719554006 0.25230951203458973
-118.41446453407511 -7.095245231323607 0.25114278126263656
-117.91376912378303 -7.08430210363307 0.2499750533581733
-117.41307371349096 -7.07320313223437 0.2488063604468065
-116.91237830319889 -7.061948112879478 0.24763673465414263
-116.41168289290681 -7.05053684132037 0.24646620810578782
-115.91098748261474 -7.03896911330902 0.24529481292734936
-115.41029207232268 -7.027244724597398 0.24412258124443345
-114.9095966620306 -7.015363470937479 0.24294954518264647
-114.40890125173853 -7.0033251480812355 0.24177573686759526
-113.90820584144646 -6.991129551780646 0.24060118842488623
-113.40751043115438 -6.978776477787677 0.239425931980126
-112.90681502086231 -6.966265721854303 0.23824999965892116
-112.40611961057024 -6.953597079732504 0.23707342358687813
-111.90542420027816 -6.940770347174248 0.23589623588960398
-111.4047287899861 -6.92778531993151 0.23471846869270444
-110.90403337969401 -6.914641793756261 0.23354015412178655
-110.40333796940195 -6.901339564400478 0.23236132430245696
-109.90264255910988 -6.887878427616134 0.23118201136032204
-109.4019471488178 -6.8742581791551975 0.2300022474209882
-108.90125173852573 -6.860478614769652 0.22882206461006252
-108.40055632823366 -6.84653953021146 0.22764149505315093
-107.89986091794158 -6.832440721232596 0.22646057087585983
-107.39916550764951 -6.818181983585046 0.22527932420379718
-106.89847009735745 -6.803763113020769 0.22409778716256804
-106.39777468706536 -6.789183905291746 0.2229159918777797
-105.8970792767733 -6.774444156149948 0.22173397047503832
-105.39638386648123 -6.759543661347348 0.22055175507995053
-104.89568845618915 -6.74448221663592 0.21936937781812318
-104.39499304589708 -6.72925961776764 0.21818687081516266
-103.89429763560501 -6.713875660494483 0.21700426619667626
-103.39360222531293 -6.69833014056841 0.21582159608826904
-102.89290681502086 -6.682622853741411 0.21463889261554805
-102.3922114047288 -6.666753595765447 0.2134561879041206
-101.89151599443672 -6.650722162392495 0.21227351407959263
-101.39082058414465 -6.634528349374535 0.2110909032675712
-100.89012517385257 -6.618171952463531 0.20990838759366207
-100.3894297635605 -6.6016527674114664 0.2087259991834727
-99.88873435326843 -6.584970589970303 0.20754377016260842
-99.38803894297635 -6.568125215892022 0.2063617326566776
-98.88734353268428 -6.551116440928593 0.20517991879128464
-98.38664812239222 -6.533944060831993 0.20399836069203794
-97.88595271210013 -6.516607871354194 0.20281709048454302
-97.38525730180807 -6.499107668247171 0.20163614029440693
-96.884561891516 -6.481443247262896 0.20045554224723652
-96.38386648122392 -6.463614404153337 0.1992753284686373
-95.88317107093185 -6.445620934670477 0.1980955310842161
-95.38247566063978 -6.427462634566285 0.19691618221958088
-94.8817802503477 -6.40913929959273 0.19573731400033603
-94.38108484005564 -6.390650725501797 0.1945589585520893
-93.88038942976357 -6.37199670804545 0.1933811480004475
-93.37969401947149 -6.3531770429756635 0.1922039144710164
-92.87899860917942 -6.334191526044411 0.19102729008940303
-92.37830319888734 -6.31503995300367 0.18985130698121402
-91.87760778859527 -6.295722119605412 0.188675997272056
-91.3769123783032 -6.276237821601609 0.18750139308753558
-90.87621696801112 -6.256586854744232 0.18632752655325827
-90.37552155771905 -6.236769014785264 0.18515442979483224
-89.87482614742699 -6.216784097476666 0.18398213493786278
-89.3741307371349 -6.196631898570424 0.1828106741079565
-88.87343532684284 -6.176312213818499 0.18164007943072094
-88.37273991655077 -6.155824838972877 0.1804703830317618
-87.87204450625869 -6.13516956978552 0.17930161703668637
-87.37134909596662 -6.114346202008407 0.1781338135710995
-86.87065368567455 -6.093354531393513 0.17696700476061047
-86.36995827538247 -6.072194353692805 0.17580122273082346
-85.8692628650904 -6.0508654646582665 0.1746364996073462
-85.36856745479834 -6.029367660041861 0.17347286751578553
-84.86787204450626 -6.007700735595567 0.17231035858174673
-84.36717663421419 -5.985864487071358 0.17114900493083732
-83.86648122392211 -5.963858710221207 0.16998883868866346
-83.36578581363004 -5.941683200797091 0.16882989198083223
-82.86509040333797 -5.919337754550971 0.1676721969329498
-82.36439499304589 -5.896822167234839 0.16651578567062233
-81.86369958275382 -5.874136234600653 0.1653606903194569
-81.36300417246176 -5.851279752400392 0.16420694300506014
-80.86230876216968 -5.828252516386027 0.16305457585303842
-80.36161335187761 -5.8050543223095366 0.1619036209889986
-79.86091794158554 -5.781684965922891 0.16075411053854663
-79.36022253129346 -5.758144242978063 0.15960607662728912
-78.85952712100139 -5.7344319492270275 0.1584595513808336
-78.35883171070932 -5.710547880421761 0.1573145669247851
-77.85813630041724 -5.686491832314231 0.1561711553847516
-77.35744089012518 -5.662263600656417 0.15502934888633926
-76.85674547983311 -5.637862981200283 0.15388917955515383
-76.35605006954103 -5.613289769697814 0.15275067951680235
-75.85535465924896 -5.588543761900975 0.15161388089689212
-75.35465924895689 -5.563624753561743 0.15047881582102865
-74.85396383866481 -5.538532540432091 0.14934551641481922
-74.35326842837274 -5.5132669182639935 0.14821401480387045
-73.85257301808066 -5.487827682809418 0.14708434311378762
-73.3518776077886 -5.462214629820349 0.1459565334701796
-72.85118219749653 -5.436427555048751 0.14483061799865007
-72.35048678720445 -5.410466254246599 0.14370662882480814
-71.84979137691238 -5.384330523165869 0.1425845980742582
-71.34909596662031 -5.358020157558539 0.14146455787260884
-70.84840055632823 -5.331534953176566 0.14034654034546537
-70.34770514603616 -5.304874705771941 0.13923057761843552
-69.8470097357441 -5.278039211096627 0.13811670181712368
-69.34631432545201 -5.251028264902598 0.13700494506713848
-68.84561891515995 -5.223841662941838 0.13589533949408542
-68.34492350486788 -5.196479200966309 0.13478791722357156
-67.8442280945758 -5.168940674727989 0.13368271038120308
-67.34353268428373 -5.141225879978852 0.1325797510925875
-66.84283727399166 -5.11333461247087 0.1314790714833294
-66.34214186369958 -5.085266667956014 0.13038070367903745
-65.84144645340751 -5.05702184218626 0.12928467980531713
-65.34075104311543 -5.028599930913587 0.1281910319877744
-64.84005563282336 -5.000000729889956 0.127099792352017
-64.3393602225313 -4.971224034867352 0.12601099302365174
-63.838664812239216 -4.942269641597744 0.1249246661282837
-63.33796940194715 -4.913137345833097 0.12384084379152108
-62.83727399165508 -4.883826943325407 0.12275955813896847
-62.336578581363 -4.854338229826625 0.12168084129623427
-61.83588317107093 -4.824671001088732 0.120604725388924
-61.335187760778865 -4.794825052863705 0.11953124254264538
-60.834492350486784 -4.7648001809035145 0.11846042488300304
-60.333796940194716 -4.734596180960133 0.11739230453560581
-59.83310152990265 -4.704212848785535 0.11632691362605765
-59.33240611961057 -4.6736499801317 0.11526428427996763
-58.8317107093185 -4.642907370750582 0.11420444862294035
-58.33101529902643 -4.611984816394181 0.11314743878058356
-57.83031988873435 -4.580882112814455 0.11209328687850431
-57.329624478442284 -4.549599055763374 0.11104202504230745
-56.82892906815022 -4.518135440992922 0.10999368539760049
-56.328233657858135 -4.486491064255067 0.10894830006999026
-55.82753824756607 -4.454665721301784 0.10790590118508317
-55.326842837273986 -4.422659207885048 0.10686652086848517
-54.82614742698192 -4.390471319756828 0.10583019124580376
-54.32545201668985 -4.358101852669091 0.10479694444264379
-53.82475660639777 -4.3255506023738315 0.1037668125846141
-53.3240611961057 -4.2928173646230094 0.10273982779731997
-52.823365785813635 -4.25990193516859 0.1017160222063678
-52.322670375521554 -4.226804109762566 0.10069542793736488
-51.82197496522949 -4.193523684156898 0.09967807711591695
-51.321279554937405 -4.160060454103555 0.09866400186763127
-50.82058414464535 -4.12641421535453 0.09765323431811426
-50.31988873435327 -4.092584763661777 0.09664580659297164
-49.81919332406119 -4.058571894777278 0.0956417508178116
-49.318497913769136 -4.024375404453008 0.09464109911823962
-48.817802503477054 -3.9899950884409323 0.0936438836198619
-48.31710709318497 -3.955430742493033 0.09265013644828549
-47.81641168289292 -3.9206821623612784 0.09165988972911723
-47.31571627260084 -3.885749143797651 0.09067317558796376
-46.81502086230876 -3.850631482554104 0.08969002615043056
-46.3143254520167 -3.8153289743826315 0.08871047354212538
-45.81363004172462 -3.779841415035208 0.08773454988865484
-45.31293463143254 -3.7441686002637846 0.08676228731562421
-44.81223922114049 -3.7083103258203574 0.08579371794864102
-44.311543810848406 -3.6722663874568875 0.08482887391331165
-43.810848400556324 -3.6360365809253503 0.08386778733524206
-43.31015299026427 -3.5996207019777247 0.0829104903400402
-42.80945757997219 -3.563018546365975 0.0819570150533109
-42.30876216968011 -3.5262299098420806 0.08100739360066214
-41.808066759388026 -3.489254588158013 0.08006165810770008
-41.30737134909597 -3.452092377065761 0.07911984070003089
-40.80667593880389 -3.4147430723172656 0.07818197350326164
-40.30598052851181 -3.377206469664526 0.07724808864299851
-39.80528511821976 -3.3394823648595144 0.07631821824484855
-39.304589707927676 -3.3015705536541917 0.07539239443441773
-38.803894297635594 -3.263470831800533 0.0744706493373122
-38.30319888734354 -3.225182995050532 0.07355301507913972
-37.80250347705146 -3.186706839156135 0.07263952378550623
-37.30180806675938 -3.1480421598693242 0.07173020758201834
-36.801112656467325 -3.109188752942086 0.07082509859428313
-36.30041724617524 -3.070146414126378 0.06992422894790609
-35.79972183588316 -3.030914939174175 0.06902763076849364
-35.29902642559111 -2.9914941238374633 0.0681353361816546
-34.79833101529903 -2.951883763868204 0.06724737731299249
-34.297635605006946 -2.912083655018379 0.06636378628811615
-33.79694019471489 -2.872093593039957 0.06548459523263064
-33.29624478442281 -2.8319133736849063 0.0646098362721437
-32.79554937413073 -2.7915427927052052 0.06373954153226127
-32.294853963838676 -2.75098164585284 0.06287374313859043
-31.794158553546595 -2.710229728879761 0.06201247321673667
-31.293463143254513 -2.6692868375379506 0.06115576389230751
-30.79276773296246 -2.6281527675793948 0.06030364729090912
-30.29207232267038 -2.586827314756051 0.059456155538148564
-29.791376912378297 -2.5453102748198875 0.05861332075963113
-29.290681502086244 -2.5036014435229115 0.057775175080964775
-28.789986091794162 -2.461700616617059 0.05694175062775522
-28.28929068150208 -2.4196075898543166 0.05611307952560954
-27.788595271210028 -2.3773221589866695 0.055289193900134787
-27.287899860917946 -2.3348441197660685 0.054470125876935366
-26.787204450625865 -2.292173267944503 0.05365590758161923
-26.28650904033381 -2.2493093992739484 0.052846571139794324
-25.78581363004173 -2.206252309506369 0.05204214867706505
-25.28511821974965 -2.1630017943937334 0.05124267231903937
-24.784422809457595 -2.1195576496880415 0.050448174191323
-24.283727399165514 -2.0759196711412367 0.04965868641952123
-23.783031988873432 -2.0320876545052977 0.048874241129243795
-23.28233657858135 -1.9880613955322213 0.04809487044609509
-22.781641168289298 -1.9438406899739542 0.04732060649568218
-22.280945757997216 -1.8994253335824824 0.04655148140361168
-21.780250347705135 -1.8548151221097777 0.045787527295489766
-21.27955493741308 -1.8100098513078118 0.04502877629692395
-20.778859527121 -1.76500931692856 0.04427526053351952
-20.27816411682892 -1.7198133147239938 0.043527012130883974
-19.777468706536865 -1.6744216404460923 0.0427840632146235
-19.276773296244784 -1.628834089846813 0.042046445910344704
-18.776077885952702 -1.5830504586781489 0.04131419234365377
-18.27538247566065 -1.537070542692068 0.04058733464015821
-17.774687065368568 -1.4908941376405354 0.03986590492546374
-17.273991655076486 -1.444521039275533 0.03914993532517699
-16.773296244784433 -1.3979510433490328 0.03843945796490503
-16.27260083449235 -1.3511839456130064 0.03773450497025402
-15.77190542420027 -1.3042195418194291 0.03703510846683103
-15.271210013908217 -1.2570576277202692 0.036341300580242236
-14.770514603616135 -1.209697999067509 0.035653113436092926
-14.269819193324054 -1.1621404516131095 0.03497057915999194
-13.769123783032 -1.114384781109064 0.03429372987754456
-13.268428372739919 -1.0664307833073225 0.03362259771435741
-12.767732962447838 -1.0182782539598714 0.03295721479603711
-12.267037552155784 -0.9699269888186857 0.03229761324819028
-11.766342141863703 -0.9213767836357301 0.03164382519642309
-11.265646731571621 -0.872627434162994 0.03099588276634349
-10.764951321279568 -0.8236787361524351 0.030353818083556333
-10.264255910987487 -0.7745304853560251 0.029717663273668676
-9.763560500695405 -0.7251824775257534 0.029087450462288472
-9.262865090403352 -0.6756345084135811 0.028463211775020564
