Polar data for a18sm at Re = 220000.0
Alpha (deg) Cl Cd
-180.0 -7.80461167251444 0.6257974878930294
-179.49930458970792 -7.821721051472936 0.6244310046103164
-178.99860917941587 -7.838691196826694 0.6230544374877157
-178.49791376912378 -7.855521395813799 0.6216678550424594
-177.9972183588317 -7.872210935672333 0.6202713257917795
-177.49652294853965 -7.8887591036403855 0.6188649182529068
-176.99582753824757 -7.905165186956044 0.6174487009430732
-176.4951321279555 -7.921428472857389 0.6160227423795107
-175.99443671766343 -7.937548248582509 0.6145871110794506
-175.49374130737135 -7.95352380136949 0.6131418755601249
-174.99304589707927 -7.969354418456419 0.6116871043387654
-174.49235048678722 -7.985039387081377 0.6102228659326036
-173.99165507649514 -8.000577994482454 0.6087492288588706
-173.49095966620305 -8.015969527897735 0.6072662616347987
-172.990264255911 -8.031213274565303 0.605774032777619
-172.48956884561892 -8.046308521723248 0.6042726108045638
-171.98887343532684 -8.061254556609654 0.6027620642328649
-171.48817802503476 -8.076050666462606 0.6012424615797535
-170.9874826147427 -8.09069613852019 0.5997138713624613
-170.48678720445062 -8.105190260020493 0.5981763620982198
-169.98609179415854 -8.119532318201596 0.5966300023042613
-169.4853963838665 -8.133721600301591 0.5950748604978165
-168.9847009735744 -8.14775739355856 0.5935110051961178
-168.48400556328232 -8.16163898521059 0.5919385049163969
-167.98331015299027 -8.175365662495768 0.5903574281758853
-167.4826147426982 -8.188936712652175 0.588767843491815
-166.9819193324061 -8.202351422917902 0.5871698193814167
-166.48122392211405 -8.215609080531031 0.5855634243619229
-165.98052851182197 -8.228708972729649 0.5839487269505655
-165.4798331015299 -8.241650386751846 0.582325795664575
-164.97913769123784 -8.254432609835703 0.5806946990211842
-164.47844228094576 -8.267054929219302 0.5790555055376242
-163.97774687065368 -8.279516632140739 0.5774082837311266
-163.47705146036162 -8.29181700583809 0.5757531021189236
-162.97635605006954 -8.303955337549446 0.5740900292182464
-162.47566063977746 -8.31593091451289 0.5724191335463272
-161.9749652294854 -8.32774302396651 0.5707404836203976
-161.47426981919332 -8.339390953148396 0.5690541479576873
-160.97357440890124 -8.350873989296623 0.5673601950754307
-160.4728789986092 -8.362191419649282 0.5656586934908588
-159.9721835883171 -8.373342531444461 0.5639497117212019
-159.47148817802503 -8.384326611920244 0.562233318283693
-158.97079276773297 -8.395142948314714 0.5605095816955642
-158.4700973574409 -8.405790827865962 0.5587785704740459
-157.9694019471488 -8.41626953781207 0.55704035313637
-157.46870653685676 -8.426578365391126 0.555294998199768
-156.96801112656468 -8.436716597841214 0.5535425741814731
-156.4673157162726 -8.446683522400416 0.5517831495987146
-155.96662030598054 -8.456478426306827 0.5500167929687264
-155.46592489568846 -8.466100596798528 0.5482435728087388
-154.96522948539638 -8.4755493211136 0.5464635576359836
-154.46453407510432 -8.484823886490137 0.5446768159676928
-153.96383866481224 -8.49392358016622 0.5428834163210982
-153.46314325452016 -8.502847689379934 0.5410834272134312
-152.9624478442281 -8.511595501369365 0.5392769171619237
-152.46175243393603 -8.520166303372603 0.5374639546838064
-151.96105702364395 -8.528559382627732 0.5356446082963123
-151.4603616133519 -8.536774026372832 0.5338189465166726
-150.9596662030598 -8.544809521845997 0.5319870378621191
-150.45897079276773 -8.552665156285306 0.5301489508498832
-149.95827538247568 -8.560340216928848 0.5283047539971965
-149.4575799721836 -8.567833991014712 0.5264545158212898
-148.9568845618915 -8.575145765780976 0.5245983048393973
-148.45618915159943 -8.582274828465732 0.5227361895687482
-147.95549374130738 -8.589220466307061 0.5208682385265754
-147.4547983310153 -8.595981966543054 0.5189945202301102
-146.95410292072324 -8.602558616411791 0.5171151031965845
-146.45340751043116 -8.608949703151364 0.5152300559432293
-145.95271210013908 -8.615154513999855 0.5133394469872766
-145.452016689847 -8.62117233619535 0.5114433448459595
-144.95132127955495 -8.627002456975932 0.5095418180365073
-144.45062586926286 -8.632644163579695 0.5076349350761528
-143.94993045897078 -8.638096743244715 0.5057227644821277
-143.44923504867873 -8.643359483209084 0.5038053747716641
-142.94853963838665 -8.648431670710883 0.5018828344619929
-142.44784422809457 -8.653312592988204 0.49995521207034643
-141.9471488178025 -8.658001537279128 0.49802257611395484
-141.44645340751043 -8.662497790821742 0.49608499511005133
-140.94575799721835 -8.666800640854133 0.49414253757586823
-140.44506258692627 -8.670909374614384 0.4921952720286352
-139.94436717663422 -8.674823279340583 0.4902432669855846
-139.44367176634213 -8.678541642270812 0.4882865909639488
-138.94297635605005 -8.68206375064316 0.48632531248095956
-138.442280945758 -8.685388891695716 0.4843595000538471
-137.94158553546592 -8.688516352666559 0.48238922219984415
-137.44089012517384 -8.69144542079378 0.4804145474361826
-136.94019471488178 -8.69417538331546 0.4784355442800935
-136.4394993045897 -8.696705527469689 0.4764522812488091
-135.93880389429762 -8.699035140494551 0.4744648268595605
-135.43810848400557 -8.701163509628133 0.47247324962957904
-134.9374130737135 -8.703089922108516 0.47047761807609756
-134.4367176634214 -8.704813665173793 0.4684780007163466
-133.93602225312935 -8.706334026062043 0.46647446606755893
-133.43532684283727 -8.707650292011357 0.4644670826469651
-132.9346314325452 -8.708761750259814 0.46245591897179794
-132.43393602225314 -8.70966768804551 0.46044104355928794
-131.93324061196105 -8.710367392606523 0.45842252492666746
-131.43254520166897 -8.710860151180938 0.4564004315911675
-130.93184979137692 -8.711145251006844 0.4543748320700217
-130.43115438108484 -8.711221979322328 0.45234579488045845
-129.93045897079276 -8.71108962336547 0.45031338853971226
-129.4297635605007 -8.710747470374363 0.44827768156501413
-128.92906815020862 -8.710194807587088 0.44623874247359463
-128.42837273991654 -8.709430922241733 0.4441966397826861
-127.92767732962449 -8.708455101576382 0.44215144200952083
-127.4269819193324 -8.707266632829118 0.44010321767132987
-126.92628650904032 -8.705864803238036 0.4380520352853442
-126.42559109874827 -8.70424890004121 0.4359979633687975
-125.92489568845619 -8.702418210476736 0.43394107043891894
-125.42420027816411 -8.700372021782693 0.4318814250129418
-124.92350486787205 -8.698109621197169 0.42981909560809795
-124.42280945757997 -8.695630295958253 0.4277541507416175
-123.92211404728789 -8.692933333304023 0.4256866589307341
-123.42141863699584 -8.690018020472571 0.42361668869267743
-122.92072322670376 -8.68688364470198 0.42154430854468117
-122.42002781641168 -8.683529493230338 0.4194695870039754
-121.91933240611961 -8.679954853295728 0.4173925925877925
-121.41863699582754 -8.676159012136237 0.4153133938133643
-120.91794158553546 -8.672141256989955 0.41323205919792094
-120.41724617524339 -8.667900875094961 0.41114865725869654
-119.91655076495132 -8.66343715368934 0.4090632565129212
-119.41585535465924 -8.658749380011182 0.4069759254778268
-118.91515994436718 -8.653836841298572 0.40488673267064523
-118.41446453407511 -8.6486988247896 0.40279574660860795
-117.91376912378303 -8.643334617722342 0.4007030358089464
-117.41307371349096 -8.637743507334891 0.3986086687888938
-116.91237830319889 -8.631924780865331 0.3965127140656789
-116.41168289290681 -8.625877725551748 0.39441524015653584
-115.91098748261474 -8.619601628632225 0.3923163155786965
-115.41029207232268 -8.613095777344848 0.39021600884939056
-114.9095966620306 -8.606359458927708 0.3881143884858508
-114.40890125173853 -8.599391960618888 0.38601152300530905
-113.90820584144646 -8.59219256965647 0.38390748092499594
-113.40751043115438 -8.584760573278546 0.3818023307621442
-112.90681502086231 -8.577095258723194 0.3796961410339862
-112.40611961057024 -8.569195913228508 0.3775889802577511
-111.90542420027816 -8.561061824032565 0.37548091695067354
-111.4047287899861 -8.55269227837346 0.3733720196299831
-110.90403337969401 -8.544086563489273 0.37126235681291087
-110.40333796940195 -8.535243966618092 0.3691519970166909
-109.90264255910988 -8.526163774998004 0.36704100875855417
-109.4019471488178 -8.516845275867087 0.3649294605557313
-108.90125173852573 -8.507287756463436 0.3628174209254541
-108.40055632823366 -8.497490504025134 0.36070495838495586
-107.89986091794158 -8.487452805790264 0.3585921414514658
-107.39916550764951 -8.477173948996912 0.3564790386422171
-106.89847009735745 -8.466653220883169 0.3543657184744421
-106.39777468706536 -8.455889908687114 0.3522522494653696
-105.8970792767733 -8.444883299646834 0.350138700132235
-105.39638386648123 -8.433632681000418 0.3480251389922676
-104.89568845618915 -8.422137339985952 0.3459116345626988
-104.39499304589708 -8.410396563841516 0.3437982553607618
-103.89429763560501 -8.398409639805203 0.3416850699036885
-103.39360222531293 -8.386175855115091 0.3395721467087086
-102.89290681502086 -8.373694497009273 0.33745955429305485
-102.3922114047288 -8.360964852725834 0.33534736117395914
-101.89151599443672 -8.347986209502858 0.333235635868652
-101.39082058414465 -8.334757854578424 0.33112444689436715
-100.89012517385257 -8.321279075190626 0.3290138627683342
-100.3894297635605 -8.307549158577553 0.326903952007786
-99.88873435326843 -8.293567391977279 0.3247947831299539
-99.38803894297635 -8.279333062627895 0.32268642465206987
-98.88734353268428 -8.264845457767493 0.32057894509136486
-98.38664812239222 -8.250103864634154 0.3184724129650712
-97.88595271210013 -8.235107570465958 0.3163668967904195
-97.38525730180807 -8.219855862501003 0.3142624650846434
-96.884561891516 -8.204348027977357 0.3121591863649743
-96.38386648122392 -8.188583354133124 0.31005712914864103
-95.88317107093185 -8.172561128206384 0.3079563619528781
-95.38247566063978 -8.156280637435216 0.30585695329491613
-94.8817802503477 -8.13974116905771 0.30375897169198607
-94.38108484005564 -8.122942010311958 0.3016624856613225
-93.88038942976357 -8.105882448436034 0.2995675637201537
-93.37969401947149 -8.08856177066804 0.2974742743857116
-92.87899860917942 -8.070979264246043 0.29538268617523034
-92.37830319888734 -8.05313421640814 0.2932928676059404
-91.87760778859527 -8.03502591439241 0.29120488719507287
-91.3769123783032 -8.016653645436941 0.2891188134598609
-90.87621696801112 -7.998016696779832 0.2870347149175333
-90.37552155771905 -7.979114355659146 0.2849526600853246
-89.87482614742699 -7.959945909312982 0.2828727174804645
-89.3741307371349 -7.940510644979428 0.2807949556201862
-88.87343532684284 -7.92080784989656 0.27871944302172025
-88.37273991655077 -7.900836811302476 0.27664624820229855
-87.87204450625869 -7.880596816435245 0.2745754396791543
-87.37134909596662 -7.860087152532975 0.27250708596951634
-86.87065368567455 -7.839307106833729 0.2704412555906187
-86.36995827538247 -7.818255966575611 0.26837801705969155
-85.8692628650904 -7.7969330189966914 0.26631743889396853
-85.36856745479834 -7.775337551335063 0.26425958961067886
-84.86787204450626 -7.753468850828819 0.2622045377270549
-84.36717663421419 -7.731326204716032 0.26015235176032936
-83.86648122392211 -7.708908900234793 0.25810310022773375
-83.36578581363004 -7.686216224623191 0.25605685164649994
-82.86509040333797 -7.66324746511931 0.2540136745338567
-82.36439499304589 -7.64000190896123 0.2519736374070404
-81.86369958275382 -7.61647884338705 0.2499368087832788
-81.36300417246176 -7.592677555634836 0.24790325717980485
-80.86230876216968 -7.568597332942696 0.24587305111385035
-80.36161335187761 -7.5442374625487005 0.2438462591026481
-79.86091794158554 -7.519597231690934 0.24182294966342818
-79.36022253129346 -7.4946759276074975 0.23980319131342206
-78.85952712100139 -7.469472837536465 0.23778705256986296
-78.35883171070932 -7.443987248715917 0.23577460194998098
-77.85813630041724 -7.418218448383952 0.23376590797100846
-77.35744089012518 -7.392165723778646 0.23176103915017862
-76.85674547983311 -7.3658283621380924 0.2297600640047198
-76.35605006954103 -7.339205650700373 0.22776305105186698
-75.85535465924896 -7.312296876703575 0.22577006880884806
-75.35465924895689 -7.285101327385782 0.22378118579289893
-74.85396383866481 -7.257618289985075 0.22179647052124882
-74.35326842837274 -7.229847051739549 0.2198159915111305
-73.85257301808066 -7.20178689988729 0.2178398172797736
-73.3518776077886 -7.173437121666375 0.21586801634441274
-72.85118219749653 -7.1447970043149045 0.2139006572222771
-72.35048678720445 -7.11586583507094 0.21193780843059948
-71.84979137691238 -7.086642901172588 0.20997953848661086
-71.34909596662031 -7.057127489857935 0.20802591590754446
-70.84840055632823 -7.027318888365043 0.2060770092106304
-70.34770514603616 -6.997216383932024 0.20413288691310102
-69.8470097357441 -6.966819263796962 0.20219361753218731
-69.34631432545201 -6.936126815197921 0.20025926958512116
-68.84561891515995 -6.905138325373009 0.19832991158913535
-68.34492350486788 -6.8738530815602985 0.19640561206146087
-67.8442280945758 -6.842270370997882 0.19448643951932917
-67.34353268428373 -6.81038948092384 0.1925724624799717
-66.84283727399166 -6.778209698576266 0.19066374946062034
-66.34214186369958 -6.745730311193238 0.18876036897850654
-65.84144645340751 -6.7129506060128445 0.1868623895508635
-65.34075104311543 -6.679869870273176 0.18496987969492004
-64.84005563282336 -6.6464873912123075 0.1830829079279098
-64.3393602225313 -6.612802456068335 0.1812015427670651
-63.838664812239216 -6.578814352079345 0.17932585272961518
-63.33796940194715 -6.5445223664834025 0.1774559063327946
-62.83727399165508 -6.509925786518627 0.175591772093833
-62.336578581363 -6.475023899423082 0.17373351852996186
-61.83588317107093 -6.439815992434852 0.17188121415841393
-61.335187760778865 -6.4043013527920305 0.17003492749642155
-60.834492350486784 -6.368479267732704 0.16819472706121438
-60.333796940194716 -6.332349024494945 0.16636068137002522
-59.83310152990265 -6.295909910316858 0.16453285894008549
-59.33240611961057 -6.259161212436522 0.16271132828862797
-58.8317107093185 -6.222102218092017 0.1608961579328819
-58.33101529902643 -6.184732214521439 0.15908741639008048
-57.83031988873435 -6.14705048896286 0.1572851721774556
-57.329624478442284 -6.109056328654374 0.15548949381223917
-56.82892906815022 -6.0707490208340715 0.15370044981166128
-56.328233657858135 -6.032127852740027 0.15191810869295605
-55.82753824756607 -5.993192111610332 0.1501425389733527
-55.326842837273986 -5.953941084683073 0.14837380917008444
-54.82614742698192 -5.914374059196335 0.1466119878003823
-54.32545201668985 -5.874490322388207 0.1448571433814768
-53.82475660639777 -5.834289161496766 0.14310934443060205
-53.3240611961057 -5.793769863760108 0.1413686594649873
-52.823365785813635 -5.75293171641631 0.1396351570018671
-52.322670375521554 -5.711774006703459 0.1379089055584711
-51.82197496522949 -5.670296021859649 0.13618997365203075
-51.321279554937405 -5.628497049122956 0.1344784297997784
-50.82058414464535 -5.58637637573147 0.13277434251894546
-50.31988873435327 -5.543933288923284 0.13107778032676384
-49.81919332406119 -5.501167075936461 0.12938881174046543
-49.318497913769136 -5.458077024009116 0.1277075052772821
-48.817802503477054 -5.414662420379315 0.12603392945444444
-48.31710709318497 -5.370922552285144 0.12436815278918387
-47.81641168289292 -5.326856706964703 0.12271024379873405
-47.31571627260084 -5.2824641716560645 0.1210602710003251
-46.81502086230876 -5.2377442335973186 0.11941830291118802
-46.3143254520167 -5.192696180026548 0.11778440804855692
-45.81363004172462 -5.147319298181847 0.1161586549296619
-45.31293463143254 -5.101612875301287 0.11454111207173576
-44.81223922114049 -5.055576198622973 0.11293184799200681
-44.311543810848406 -5.009208555384975 0.11133093120771051
-43.810848400556324 -4.962509232825381 0.10973843023607607
-43.31015299026427 -4.915477518182282 0.10815441359433806
-42.80945757997219 -4.868112698693766 0.1065789497997239
-42.30876216968011 -4.820414061597903 0.10501210736946906
-41.808066759388026 -4.7723808941328 0.10345395482080363
-41.30737134909597 -4.724012483536535 0.10190456067095863
-40.80667593880389 -4.675308117047178 0.1003639934371677
-40.30598052851181 -4.62626708190283 0.09883232163666097
-39.80528511821976 -4.576888665341588 0.09730961378667122
-39.304589707927676 -4.527172154601514 0.09579593840442943
-38.803894297635594 -4.477116836920702 0.09429136400716573
-38.30319888734354 -4.42672199953725 0.09279595911211466
-37.80250347705146 -4.375986929689223 0.09130979223650545
-37.30180806675938 -4.324910914614717 0.08983293189757088
-36.801112656467325 -4.273493241551829 0.08836544661254372
-36.30041724617524 -4.221733197738622 0.08690740489865409
-35.79972183588316 -4.169630070413195 0.08545887527313298
-35.29902642559111 -4.117183146813645 0.08401992625321406
-34.79833101529903 -4.064391714178036 0.08259062635612743
-34.297635605006946 -4.011255059744457 0.08117104409910589
-33.79694019471489 -3.95777247075101 0.07976124799938131
-33.29624478442281 -3.9039432344357614 0.0783613065741838
-32.79554937413073 -3.8497666380368045 0.07697128834074615
-32.294853963838676 -3.7952419687922383 0.07559126181629935
-31.794158553546595 -3.7403685139401297 0.07422129551807619
-31.293463143254513 -3.68514556071856 0.07286145796330587
-30.79276773296246 -3.6295723963656474 0.07151181766922296
-30.29207232267038 -3.573648308119436 0.07017244315305934
-29.791376912378297 -3.5173725832180445 0.06884340293204425
-29.290681502086244 -3.4607445088995465 0.06752476552340955
-28.789986091794162 -3.40376337240202 0.06621659944438804
-28.28929068150208 -3.346428460963553 0.06491897321221249
-27.788595271210028 -3.2887390618222465 0.0636319553441139
-27.287899860917946 -3.230694462216176 0.062355614357319705
-26.787204450625865 -3.1722939493834215 0.061090018769068916
-26.28650904033381 -3.1135368105620795 0.059835237096587196
-25.78581363004173 -3.0544223329902227 0.0585913378571091
-25.28511821974965 -2.9949498039059446 0.05735838956786474
-24.784422809457595 -2.935118510547344 0.05613646074608866
-24.283727399165514 -2.874927740152488 0.05492561990900832
-23.783031988873432 -2.8143767799594475 0.05372593557385916
-23.28233657858135 -2.7534649172063546 0.05253747625787128
-22.781641168289298 -2.692191439131264 0.0513603104782748
-22.280945757997216 -2.63055563297225 0.050194506752304274
-21.780250347705135 -2.568556785967436 0.04904013359718892
-21.27955493741308 -2.5061941853548824 0.04789725953016241
-20.778859527121 -2.4434671183726735 0.04676595306845485
-20.27816411682892 -2.380374872258903 0.0456462827293008
-19.777468706536865 -2.3169167342516594 0.04453831702992769
-19.276773296244784 -2.253091991589006 0.04344212448757098
-18.776077885952702 -2.1888999315090647 0.042357773619456335
-18.27538247566065 -2.1243398412498955 0.04128533294282363
-17.774687065368568 -2.059411008049583 0.04022487097490032
-17.273991655076486 -1.9941127191462282 0.039176456232917406
-16.773296244784433 -1.9284442617779103 0.03814015723410766
-16.27260083449235 -1.8624049231827158 0.03711604249570208
-15.77190542420027 -1.7959939905987206 0.036104180534932556
-15.271210013908217 -1.729210751264029 0.035104639869032755
-14.770514603616135 -1.662054492416706 0.0341174890152319
-14.269819193324054 -1.594524501294849 0.03314279649076099
-13.769123783032 -1.5266200651365534 0.03218063081285369
-13.268428372739919 -1.458340471179886 0.031231060498741886
-12.767732962447838 -1.389685006662937 0.030294154065655693
-12.267037552155784 -1.3206529588238016 0.029369980030828774
-11.766342141863703 -1.2512436149005577 0.02845860691148769
-11.265646731571621 -1.1814562621312952 0.02756010322487054
-10.764951321279568 -1.1112901877540953 0.026674537488208333
-10.264255910987487 -1.0407446790070463 0.025801978218727623
-9.763560500695405 -0.9698190231282275 0.024942493933666515
-9.262865090403352 -0.8985125073557398 0.024096153150248906
-8.76216968011127 -0.8268244189276626 0.023263024385714676
-8.261474269819189 -0.7547540450820645 0.022443176157291272
