Polar data for 2 at Re = 111428.57142857143
Alpha (deg) Cl Cd
-180.0 -5.6371610994917996 1.1193323282471577
-179.49930458970792 -5.6480283593964975 1.1164676523716388
-178.99860917941587 -5.65879373367979 1.1135843973026984
-178.49791376912378 -5.669456797917973 1.110682709610917
-177.9972183588317 -5.680017127687336 1.1077627358668776
-177.49652294853965 -5.690474298564173 1.1048246226411609
-176.99582753824757 -5.7008278861247765 1.101868516504349
-176.4951321279555 -5.711077465945439 1.0988945640270222
-175.99443671766343 -5.721222613602452 1.095902911779765
-175.49374130737135 -5.7312629046721115 1.0928937063331563
-174.99304589707927 -5.741197914730704 1.08986709425778
-174.49235048678722 -5.751027219354526 1.0868232221242151
-173.99165507649514 -5.76075039411987 1.0837622365030455
-173.49095966620305 -5.770367014603027 1.0806842839648503
-172.990264255911 -5.77987665638029 1.077589511080214
-172.48956884561892 -5.789278895027951 1.0744780644197156
-171.98887343532684 -5.798573306122305 1.0713500905539386
-171.48817802503476 -5.8077594652396405 1.0682057360534636
-170.9874826147427 -5.8168369479562525 1.065045147488873
-170.48678720445062 -5.825805329848434 1.0618684714307471
-169.98609179415854 -5.834664186492474 1.058675854449669
-169.4853963838665 -5.84341309346467 1.05546744311622
-168.9847009735744 -5.852051626341311 1.0522433840009808
-168.48400556328232 -5.860579360698689 1.0490038236745336
-167.98331015299027 -5.868995872113099 1.0457489087074598
-167.4826147426982 -5.877300736160833 1.0424787856703401
-166.9819193324061 -5.885493528418182 1.0391936011337586
-166.48122392211405 -5.893573824461439 1.0358935016682953
-165.98052851182197 -5.901541199866897 1.0325786338445322
-165.4798331015299 -5.909395230210847 1.0292491442330503
-164.97913769123784 -5.917135491069586 1.0259051794044305
-164.47844228094576 -5.924761558019401 1.022546885929257
-163.97774687065368 -5.932273006636586 1.0191744103781086
-163.47705146036162 -5.939669412497435 1.0157878993215694
-162.97635605006954 -5.946950351178239 1.012387499330219
-162.47566063977746 -5.954115398255292 1.0089733569746409
-161.9749652294854 -5.961164129304884 1.0055456188254144
-161.47426981919332 -5.968096119903311 1.002104431453122
-160.97357440890124 -5.974910945626861 0.9986499414283452
-160.4728789986092 -5.981608182051831 0.995182295321668
-159.9721835883171 -5.988187404754512 0.9917016397036675
-159.47148817802503 -5.994648189311194 0.9882081211449296
-158.97079276773297 -6.0009901112981705 0.9847018862160348
-158.4700973574409 -6.007212746291736 0.981183081487562
-157.9694019471488 -6.0133156698681836 0.9776518535300951
-157.46870653685676 -6.019298457603802 0.9741083489142157
-156.96801112656468 -6.025160685074887 0.9705527142105062
-156.4673157162726 -6.030901927857729 0.9669850959895461
-155.96662030598054 -6.03652176152862 0.9634056408219187
-155.46592489568846 -6.042019761663855 0.9598144952782037
-154.96522948539638 -6.047395503839726 0.9562118059289844
-154.46453407510432 -6.0526485636325225 0.9525977193448429
-153.96383866481224 -6.057778516618542 0.9489723820963591
-153.46314325452016 -6.06278493837407 0.9453359407541153
-152.9624478442281 -6.067667404475406 0.9416885418886929
-152.46175243393603 -6.072425490498839 0.9380303320706742
-151.96105702364395 -6.077058772020662 0.9343614578706398
-151.4603616133519 -6.081566824617166 0.930682065859173
-150.9596662030598 -6.085949223864648 0.9269923026068534
-150.45897079276773 -6.090205545339396 0.9232923146842633
-149.95827538247568 -6.094335364617702 0.9195822486619851
-149.4575799721836 -6.098338257275864 0.9158622511105985
-148.9568845618915 -6.102213798890169 0.9121324686006866
-148.45618915159943 -6.105961565036911 0.9083930477028337
-147.95549374130738 -6.109581131292383 0.9046441349876149
-147.4547983310153 -6.113072073232877 0.900885877025617
-146.95410292072324 -6.116433966434686 0.8971184203874196
-146.45340751043116 -6.119666386474103 0.8933419116436043
-145.95271210013908 -6.12276890892742 0.8895564973647525
-145.452016689847 -6.125741109370926 0.8857623241214492
-144.95132127955495 -6.12858256338092 0.8819595384842713
-144.45062586926286 -6.13129284653369 0.8781482870238013
-143.94993045897078 -6.13387153440553 0.8743287163106233
-143.44923504867873 -6.136318202572732 0.8705009729153159
-142.94853963838665 -6.138632426611587 0.8666652034084643
-142.44784422809457 -6.140813782098391 0.8628215543606481
-141.9471488178025 -6.142861844609434 0.8589701723424461
-141.44645340751043 -6.14477618972101 0.8551112039244442
-140.94575799721835 -6.146556393009409 0.851244795677222
-140.44506258692627 -6.148202030050926 0.8473710941713619
-139.94436717663422 -6.149712676421851 0.8434902459774454
-139.44367176634213 -6.151087907698479 0.8396023976660547
-138.94297635605005 -6.1523272994571006 0.8357076958077705
-138.442280945758 -6.153430427274009 0.8318062869731724
-137.94158553546592 -6.154396866725498 0.8278983177328454
-137.44089012517384 -6.155226193387855 0.8239839346573701
-136.94019471488178 -6.155917982837381 0.820063284317327
-136.4394993045897 -6.15647181065036 0.8161365132832976
-135.93880389429762 -6.156887252403091 0.8122037681258669
-135.43810848400557 -6.157163883671863 0.8082651954156119
-134.9374130737135 -6.157301280032967 0.8043209417231167
-134.4367176634214 -6.1572990170627 0.8003711536189619
-133.93602225312935 -6.1571566703373515 0.7964159776737298
-133.43532684283727 -6.156873815433214 0.7924555604580028
-132.9346314325452 -6.1564500279265815 0.7884900485423623
-132.43393602225314 -6.155884883393745 0.784519588497387
-131.93324061196105 -6.155177957410999 0.7805443268936612
-131.43254520166897 -6.154328825554633 0.7765644103017662
-130.93184979137692 -6.153337063400941 0.7725799852922852
-130.43115438108484 -6.152202246526216 0.7685911984357954
-129.93045897079276 -6.150923950506749 0.7645981963028843
-129.4297635605007 -6.149501750918833 0.7606011254641281
-128.92906815020862 -6.147935223338762 0.756600132490109
-128.42837273991654 -6.146223943342827 0.7525953639514122
-127.92767732962449 -6.144367486507321 0.7485869664186164
-127.4269819193324 -6.142365428408535 0.7445750864623049
-126.92628650904032 -6.140217344622763 0.7405598706530572
-126.42559109874827 -6.137922810726299 0.7365414655614584
-125.92489568845619 -6.135481402295431 0.7325200177580855
-125.42420027816411 -6.132892694906456 0.7284956738135226
-124.92350486787205 -6.130156264135665 0.7244685802983513
-124.42280945757997 -6.127271685559349 0.7204388837831528
-123.92211404728789 -6.124238534753802 0.7164067308385105
-123.42141863699584 -6.121056387295317 0.7123722680350031
-122.92072322670376 -6.117724818760184 0.7083356419432139
-122.42002781641168 -6.114243404724699 0.7042969991337251
-121.91933240611961 -6.11061172076515 0.7002564861771157
-121.41863699582754 -6.106829342457834 0.6962142496439687
-120.91794158553546 -6.102895845379042 0.6921704361048684
-120.41724617524339 -6.098810805105063 0.6881251921303926
-119.91655076495132 -6.094573797212194 0.6840786642911245
-119.41585535465924 -6.090184397276727 0.6800309991576456
-118.91515994436718 -6.085642180874951 0.6759823433005365
-118.41446453407511 -6.080946723583162 0.6719328432903786
-117.91376912378303 -6.07609760097765 0.6678826456977569
-117.41307371349096 -6.0710943886347115 0.6638318970932511
-116.91237830319889 -6.065936662130634 0.6597807440474408
-116.41168289290681 -6.060623997041712 0.6557293331309102
-115.91098748261474 -6.0551559689442405 0.651677810914238
-115.41029207232268 -6.049532153414506 0.6476263239680102
-114.9095966620306 -6.043752126028809 0.6435750188628038
-114.40890125173853 -6.037815462363434 0.6395240421692046
-113.90820584144646 -6.031721737994679 0.6354735404577914
-113.40751043115438 -6.025470528498835 0.6314236602991448
-112.90681502086231 -6.019061409452192 0.6273745482638506
-112.40611961057024 -6.0124939564310464 0.6233263509224869
-111.90542420027816 -6.005767745011687 0.6192792148456359
-111.4047287899861 -5.998882350770409 0.6152332866038825
-110.90403337969401 -5.991837349283503 0.6111887127678004
-110.40333796940195 -5.984632316127266 0.6071456399079789
-109.90264255910988 -5.977266826877984 0.6031042145949976
-109.4019471488178 -5.969740457111951 0.5990645833994364
-108.90125173852573 -5.962052782405463 0.5950268928918792
-108.40055632823366 -5.954203378334811 0.5909912896429048
-107.89986091794158 -5.946191820476285 0.5869579202230966
-107.39916550764951 -5.938017684406178 0.5829269312030367
-106.89847009735745 -5.929680545700787 0.5788984691533041
-106.39777468706536 -5.921179979936401 0.5748726806444837
-105.8970792767733 -5.912515562689309 0.5708497122471587
-105.39638386648123 -5.903686869535811 0.5668297105319045
-104.89568845618915 -5.894693476052194 0.562812822069304
-104.39499304589708 -5.885534957814752 0.5587991934299434
-103.89429763560501 -5.876210890399778 0.5547889711844023
-103.39360222531293 -5.8667208493835625 0.5507823019032612
-102.89290681502086 -5.857064410342401 0.5467793321570988
-102.3922114047288 -5.847241148852586 0.5427802085165039
-101.89151599443672 -5.837250640490405 0.5387850775520515
-101.39082058414465 -5.827092460832156 0.5347940858343285
-100.89012517385257 -5.81676618545413 0.5308073799339119
-100.3894297635605 -5.8062713899326175 0.5268251064213849
-99.88873435326843 -5.795607649843914 0.5228474118673316
-99.38803894297635 -5.784774540764308 0.51887444284233
-98.88734353268428 -5.773771638270095 0.514906345916964
-98.38664812239222 -5.762598517937569 0.5109432676618153
-97.88595271210013 -5.751254755343018 0.5069853546474625
-97.38525730180807 -5.739739926062738 0.5030327534444907
-96.884561891516 -5.7280536056730185 0.49908561062348133
-96.38386648122392 -5.716195369750157 0.4951440727550114
-95.88317107093185 -5.704164793870439 0.4912082864096703
-95.38247566063978 -5.691961453610161 0.4872783981580333
-94.8817802503477 -5.679584924545616 0.4833545545706819
-94.38108484005564 -5.667034782253097 0.4794369022182019
-93.88038942976357 -5.654310602308893 0.47552558767117037
-93.37969401947149 -5.641411960289301 0.4716207575001732
-92.87899860917942 -5.628338431770609 0.4677225582757918
-92.37830319888734 -5.615089592329114 0.4638311365686023
-91.87760778859527 -5.6016650175411025 0.4599466389491942
-91.3769123783032 -5.58806428298287 0.45606921198814265
-90.87621696801112 -5.574286964230711 0.45219900225603005
-90.37552155771905 -5.560332636860918 0.44833615632344315
-89.87482614742699 -5.54620087644978 0.4444808207609572
-89.3741307371349 -5.5318912585735935 0.44063314213915716
-88.87343532684284 -5.517403358808646 0.4367932670286254
-88.37273991655077 -5.502736752731233 0.43296134199993985
-87.87204450625869 -5.487891015917648 0.42913751362368635
-87.37134909596662 -5.472865723944185 0.42532192847044104
-86.87065368567455 -5.45766045238713 0.42151473311079424
-86.36995827538247 -5.442274776822781 0.4177160741153194
-85.8692628650904 -5.426708272827424 0.4139260980546007
-85.36856745479834 -5.410960515977362 0.41014495149922214
-84.86787204450626 -5.395031081848878 0.4063727810197617
-84.36717663421419 -5.3789195460182695 0.4026097331868026
-83.86648122392211 -5.3626254840618275 0.39885595457092893
-83.36578581363004 -5.346148471555846 0.3951115917427186
-82.86509040333797 -5.329488084076613 0.39137679127275216
-82.36439499304589 -5.312643897200423 0.3876516997316155
-81.86369958275382 -5.295615486503576 0.3839364636898883
-81.36300417246176 -5.278402427562351 0.38023122971815027
-80.86230876216968 -5.261004295953051 0.37653614438698635
-80.36161335187761 -5.243420667251965 0.37285135426697713
-79.86091794158554 -5.225651117035382 0.3691770059287023
-79.36022253129346 -5.207695220879603 0.36551324594274504
-78.85952712100139 -5.189552554360913 0.36186022087968683
-78.35883171070932 -5.171222693055605 0.35821807731010824
-77.85813630041724 -5.152705212539977 0.35458696180459426
-77.35744089012518 -5.133999688390312 0.3509670209337237
-76.85674547983311 -5.115105696182915 0.34735840126807616
-76.35605006954103 -5.096022811494065 0.3437612493782376
-75.85535465924896 -5.076750609900068 0.3401757118347859
-75.35465924895689 -5.057288666977203 0.33660193520830517
-74.85396383866481 -5.037636558301773 0.33304006606937775
-74.35326842837274 -5.017793859450065 0.3294902509885842
-73.85257301808066 -4.997760145998373 0.3259526365365015
-73.3518776077886 -4.977534993522988 0.32242736928372007
-72.85118219749653 -4.957117977600212 0.31891459580081327
-72.35048678720445 -4.936508673806318 0.3154144626583697
-71.84979137691238 -4.915706657717618 0.3119271164269637
-71.34909596662031 -4.894711504910396 0.3084527036771838
-70.84840055632823 -4.87352279096094 0.3049913709796088
-70.34770514603616 -4.852140091445551 0.3015432649048193
-69.8470097357441 -4.83056298194052 0.29810853202339405
-69.34631432545201 -4.8087910380221315 0.2946873189059225
-68.84561891515995 -4.786823835266687 0.2912797721229825
-68.34492350486788 -4.764660949250476 0.287886038245152
-67.8442280945758 -4.742301955549789 0.2845062638430169
-67.34353268428373 -4.719746429740922 0.28114059548715864
-66.84283727399166 -4.696993947400167 0.2777891797481551
-66.34214186369958 -4.67404408410381 0.27445216319659393
-65.84144645340751 -4.6508964154281545 0.27112969240305396
-65.34075104311543 -4.627550516949486 0.26782191393811394
-64.84005563282336 -4.604005964244094 0.2645289743723571
-64.3393602225313 -4.580262332888277 0.2612510202763667
-63.838664812239216 -4.55631919845833 0.2579881982207233
-63.33796940194715 -4.532176136530533 0.25474065477600916
-62.83727399165508 -4.507832722681193 0.2515085365128058
-62.336578581363 -4.483288532486594 0.2482919900016929
-61.83588317107093 -4.458543141523031 0.24509116181325277
-61.335187760778865 -4.433596125366795 0.2419061985180704
-60.834492350486784 -4.40844705959418 0.23873724668672283
-60.333796940194716 -4.3830955197814765 0.23558445288979415
-59.83310152990265 -4.357541081504979 0.23244796369786583
-59.33240611961057 -4.331783320340981 0.2293279256815193
-58.8317107093185 -4.30582181186577 0.22622448541133247
-58.33101529902643 -4.2796561316556465 0.2231377894578939
-57.83031988873435 -4.253285855286895 0.22006798439178235
-57.329624478442284 -4.2267105583358076 0.21701521678357752
-56.82892906815022 -4.199929816378689 0.21397963320385996
-56.328233657858135 -4.1729432049918165 0.21096138022321556
-55.82753824756607 -4.14575029975149 0.20796060441222577
-55.326842837273986 -4.118350676234001 0.20497745234147027
-54.82614742698192 -4.090743910015646 0.20201207058152873
-54.32545201668985 -4.062929576672709 0.1990646057029826
-53.82475660639777 -4.0349072517814895 0.19613520427641776
-53.3240611961057 -4.006676510918278 0.19322401287241478
-52.823365785813635 -3.9782369296593627 0.19033117806155067
-52.322670375521554 -3.9495880835810437 0.18745684641441487
-51.82197496522949 -3.9207295482596107 0.1846011645015835
-51.321279554937405 -3.8916608992713515 0.18176427889363714
-50.82058414464535 -3.8623817121925628 0.17894633616116165
-50.31988873435327 -3.8328915625995377 0.17614748287473495
-49.81919332406119 -3.8031900260685676 0.1733678656049438
-49.318497913769136 -3.773276678175944 0.17060763092236433
-48.817802503477054 -3.7431510944979616 0.1678669253975771
-48.31710709318497 -3.7128128506109066 0.1651458956011698
-47.81641168289292 -3.682261522091081 0.1624446881037194
-47.31571627260084 -3.6514966845147727 0.15976344947581092
-46.81502086230876 -3.6205179134582712 0.15710232628802048
-46.3143254520167 -3.5893247844978715 0.15446146511093575
-45.81363004172462 -3.5579168732098703 0.15184101251513818
-45.31293463143254 -3.52629375517055 0.14924111507120388
-44.81223922114049 -3.4944550059562163 0.14666191934971787
-44.311543810848406 -3.4624002011431534 0.14410357192126158
-43.810848400556324 -3.4301289163076527 0.14156621935641647
-43.31015299026427 -3.397640727026009 0.13905000822576755
-42.80945757997219 -3.3649352088745177 0.1365550850998856
-42.30876216968011 -3.3320119374294626 0.13408159654936627
-41.808066759388026 -3.298870488267144 0.13162968914478038
-41.30737134909597 -3.265510436963859 0.12919950945671824
-40.80667593880389 -3.231931359095886 0.12679120405575242
-40.30598052851181 -3.1981328302395218 0.12440491951247326
-39.80528511821976 -3.164114425971076 0.1220408023974551
-39.304589707927676 -3.1298757218668127 0.11969899928128294
-38.803894297635594 -3.0954162935030434 0.11737965673453823
-38.30319888734354 -3.0607357164560627 0.11508292132780243
-37.80250347705146 -3.025833566302146 0.11280893963166053
-37.30180806675938 -2.990709418617599 0.11055785821668332
-36.801112656467325 -2.955362848978715 0.10832982365346647
-36.30041724617524 -2.919793432961776 0.10612498251258254
-35.79972183588316 -2.8840007461430863 0.10394348136461298
-35.29902642559111 -2.847984364098937 0.10178546678014813
-34.79833101529903 -2.8117438624056073 0.099651085329757
-34.297635605006946 -2.775278816639399 0.0975404835840317
-33.79694019471489 -2.7385888023766176 0.09545380811354834
-33.29624478442281 -2.7016733951935334 0.09339120548889016
-32.79554937413073 -2.664532170666443 0.0913528222806386
-32.294853963838676 -2.6271647043716557 0.08933880505937333
-31.794158553546595 -2.589570571885445 0.08734930039567937
-31.293463143254513 -2.551749348784109 0.0853844548601346
-30.79276773296246 -2.5137006106439523 0.08344441502332581
-30.29207232267038 -2.475423933041246 0.08152932745583089
-29.791376912378297 -2.4369188915522946 0.07963933872822951
-29.290681502086244 -2.3981850617533995 0.07777459541110845
-28.789986091794162 -2.3592220192208346 0.07593524407504562
-28.28929068150208 -2.3200293395308966 0.07412143129062423
-27.788595271210028 -2.2806065982598946 0.0723333036284293
-27.287899860917946 -2.2409533709841023 0.07057100765902982
-26.787204450625865 -2.2010692332798145 0.06883468995302325
-26.28650904033381 -2.160953760723337 0.06712449708098037
-25.78581363004173 -2.120606528890943 0.06544057561348796
-25.28511821974965 -2.0800271133589368 0.06378307212112569
-24.784422809457595 -2.03921508970362 0.06215213317447857
-24.283727399165514 -1.998170033501265 0.06054790534412094
-23.783031988873432 -1.956891520328168 0.05897053520063958
-23.28233657858135 -1.9153791257606418 0.057420169314617714
-22.781641168289298 -1.8736324253749566 0.05589695425662969
-22.280945757997216 -1.8316509947474071 0.05440103659726761
-21.780250347705135 -1.7894344094542973 0.05293256290710227
-21.27955493741308 -1.7469822450719168 0.05149167975672045
-20.778859527121 -1.7042940771765462 0.05007853371670892
-20.27816411682892 -1.6613694813444913 0.04869327135764026
-19.777468706536865 -1.6182080331520396 0.04733603925010124
-19.276773296244784 -1.5748093081754775 0.046006983964667986
-18.776077885952702 -1.531172881991114 0.04470625207192905
-18.27538247566065 -1.4872983301752278 0.04343399014246588
-17.774687065368568 -1.443185228304109 0.04219034474685282
-17.273991655076486 -1.3988331519540609 0.04097546245567665
-16.773296244784433 -1.3542416767013716 0.03978948983951883
-16.27260083449235 -1.3094103781223307 0.03863257346896257
-15.77190542420027 -1.2643388317932314 0.037504859914587546
-15.271210013908217 -1.219026613290372 0.03640649574697344
-14.770514603616135 -1.173473298190035 0.035337627536705246
-14.269819193324054 -1.1276784620685245 0.034298401854360866
-13.769123783032 -1.0816416805021263 0.03328896527052175
-13.268428372739919 -1.03536252906713 0.03230946435577289
-12.767732962447838 -0.9888405833398306 0.03136004568070108
-12.267037552155784 -0.9420754188965266 0.030440855815873552
-11.766342141863703 -0.895066611313504 0.029552041331880635
-11.265646731571621 -0.8478137361670541 0.028693748799307334
-10.764951321279568 -0.8003163690334756 0.027866124788729768
-10.264255910987487 -0.7525740854890579 0.027069315870731164
-9.763560500695405 -0.7045864611100889 0.02630346861588942
-9.262865090403352 -0.6563530714728689 0.025568729594794865
-8.76216968011127 -0.6078734921536839 0.024865245378021844
-8.261474269819189 -0.5591472987288288 0.02419316253615003
