Polar data for a18sm at Re = 145714.28571428574
Alpha (deg) Cl Cd
-180.0 -12.076796201595466 1.4055651218555845
-179.49930458970792 -12.087046392933782 1.402085642999114
-178.99860917941587 -12.09708670195473 1.3985825276587436
-178.49791376912378 -12.106916780767135 1.395055955980089
-177.9972183588317 -12.11653628147981 1.391506108108766
-177.49652294853965 -12.125944856201569 1.3879331641903896
-176.99582753824757 -12.13514215704123 1.3843373043705753
-176.4951321279555 -12.144127836107605 1.3807187087949364
-175.99443671766343 -12.152901545509513 1.3770775576090895
-175.49374130737135 -12.16146293735577 1.3734140309586502
-174.99304589707927 -12.169811663755189 1.3697283089892318
-174.49235048678722 -12.177947376816585 1.3660205718464482
-173.99165507649514 -12.18586972864878 1.3622909996759187
-173.49095966620305 -12.193578371360582 1.3585397726232538
-172.990264255911 -12.20107295706081 1.35476707083407
-172.48956884561892 -12.208353137858282 1.350973074453984
-171.98887343532684 -12.215418565861809 1.347157963628609
-171.48817802503476 -12.22226889318021 1.3433219185035625
-170.9874826147427 -12.228903771922297 1.3394651192244558
-170.48678720445062 -12.235322854196887 1.3355877459369054
-169.98609179415854 -12.241525792112801 1.3316899787865273
-169.4853963838665 -12.247512237778848 1.3277719979189353
-168.9847009735744 -12.253281843303844 1.3238339834797452
-168.48400556328232 -12.25883426079661 1.319876115614572
-167.98331015299027 -12.264169142365954 1.3158985744690312
-167.4826147426982 -12.269286140120697 1.3119015401887362
-166.9819193324061 -12.274184906169657 1.3078851929193034
-166.48122392211405 -12.278865092621642 1.3038497128063478
-165.98052851182197 -12.283326351585474 1.2997952799954833
-165.4798331015299 -12.287568335169963 1.2957220746323257
-164.97913769123784 -12.29159069548393 1.291630276862489
-164.47844228094576 -12.29539308463619 1.2875200668315907
-163.97774687065368 -12.298975154735553 1.2833916246852421
-163.47705146036162 -12.30233655789084 1.2792451305690618
-162.97635605006954 -12.305476946210868 1.2750807646286635
-162.47566063977746 -12.30839597180445 1.2708987070096622
-161.9749652294854 -12.311093286780396 1.2666991378576729
-161.47426981919332 -12.313568543247534 1.2624822373183084
-160.97357440890124 -12.31582139331467 1.2582481855371874
-160.4728789986092 -12.317851489090623 1.253997162659923
-159.9721835883171 -12.319658482684208 1.2497293488321306
-159.47148817802503 -12.321242026204239 1.2454449241994254
-158.97079276773297 -12.322601771759539 1.2411440689074231
-158.4700973574409 -12.323737371458911 1.236826963101736
-157.9694019471488 -12.324648477411179 1.2324937869279822
-157.46870653685676 -12.32533474172516 1.228144720531775
-156.96801112656468 -12.325795816509665 1.2237799440587303
-156.4673157162726 -12.32603135387351 1.21939963765446
-155.96662030598054 -12.326041005925518 1.2150039814645845
-155.46592489568846 -12.325824424774494 1.210593155634716
-154.96522948539638 -12.32538126252926 1.2061673403104676
-154.46453407510432 -12.32471117129863 1.2017267156374594
-153.96383866481224 -12.323813803191419 1.197271461761301
-153.46314325452016 -12.322688810316444 1.1928017588276107
-152.9624478442281 -12.321335844782519 1.1883177869820027
-152.46175243393603 -12.319754558698458 1.183819726370091
-151.96105702364395 -12.317944604173086 1.179307757137491
-151.4603616133519 -12.315905633315205 1.1747820594298188
-150.9596662030598 -12.313637298233642 1.17024281339269
-150.45897079276773 -12.311139251037206 1.165690199171717
-149.95827538247568 -12.308411143834716 1.1611243969125171
-149.4575799721836 -12.305452628734988 1.1565455867607044
-148.9568845618915 -12.302263357846831 1.1519539488618937
-148.45618915159943 -12.298842983279068 1.1473496633617009
-147.95549374130738 -12.295191157140513 1.1427329104057389
-147.4547983310153 -12.29130753153998 1.1381038701396253
-146.95410292072324 -12.287191758586284 1.1334627227089742
-146.45340751043116 -12.282843490388247 1.1288096482593994
-145.95271210013908 -12.278262379054674 1.124144826936516
-145.452016689847 -12.273448076694388 1.119468438885943
-144.95132127955495 -12.268400235416205 1.1147806642532911
-144.45062586926286 -12.263118507328938 1.1100816831841778
-143.94993045897078 -12.257602544541404 1.1053716758242143
-143.44923504867873 -12.251851999162414 1.1006508223190181
-142.94853963838665 -12.245866523300789 1.0959193028142078
-142.44784422809457 -12.239645769065346 1.091177297455392
-141.9471488178025 -12.233189388564897 1.086424986388189
-141.44645340751043 -12.226497033908254 1.0816625497582129
-140.94575799721835 -12.219568357204242 1.076890167711082
-140.44506258692627 -12.21240301056167 1.0721080203924078
-139.94436717663422 -12.205000646089351 1.0673162879478042
-139.44367176634213 -12.197360915896114 1.0625151505228905
-138.94297635605005 -12.189483472090759 1.0577047882632789
-138.442280945758 -12.18136796678211 1.0528853813145833
-137.94158553546592 -12.173014052078981 1.0480571098224223
-137.44089012517384 -12.164421380090184 1.043220153932408
-136.94019471488178 -12.155589602924545 1.0383746937901552
-136.4394993045897 -12.146518372690869 1.0335209095412825
-135.93880389429762 -12.137207341497971 1.0286589813314002
-135.43810848400557 -12.127656161454679 1.0237890893061268
-134.9374130737135 -12.117864484669793 1.0189114136110762
-134.4367176634214 -12.107831963252137 1.0140261343918615
-133.93602225312935 -12.097558249310532 1.009133431794102
-133.43532684283727 -12.087042994953782 1.0042334859634092
-132.9346314325452 -12.076285852290711 0.9993264770453987
-132.43393602225314 -12.06528647343013 0.9944125851856862
-131.93324061196105 -12.054044510480855 0.9894919905298867
-131.43254520166897 -12.042559615551708 0.984564873223615
-130.93184979137692 -12.030831440751493 0.979631413412485
-130.43115438108484 -12.018859638189037 0.9746917912421136
-129.93045897079276 -12.00664385997315 0.9697461868581154
-129.4297635605007 -11.994183758212648 0.9647947804061063
-128.92906815020862 -11.981478985016343 0.9598377520316967
-128.42837273991654 -11.968529192493063 0.9548752818805095
-127.92767732962449 -11.95533403275161 0.9499075500981515
-127.4269819193324 -11.94189315790081 0.9449347368302439
-126.92628650904032 -11.928206220049463 0.9399570222223961
-126.42559109874827 -11.914272871306403 0.9349745864202292
-125.92489568845619 -11.900092763780437 0.9299876095693547
-125.42420027816411 -11.88566554958038 0.9249962718153872
-124.92350486787205 -11.870990880815052 0.9200007533039427
-124.42280945757997 -11.856068409593265 0.9150012341806368
-123.92211404728789 -11.840897788023833 0.9099978945910836
-123.42141863699584 -11.825478668215572 0.9049909146808988
-122.92072322670376 -11.809810702277305 0.8999804745956972
-122.42002781641168 -11.793893542317841 0.8949667544810938
-121.91933240611961 -11.777726840445998 0.8899499344827033
-121.41863699582754 -11.761310248770588 0.8849301947461408
-120.91794158553546 -11.744643419400427 0.8799077154170183
-120.41724617524339 -11.727726004444337 0.8748826766409579
-119.91655076495132 -11.710557656011128 0.8698552585635699
-119.41585535465924 -11.693138026209615 0.8648256413304694
-118.91515994436718 -11.675466767148622 0.8597940050872737
-118.41446453407511 -11.65754353093695 0.8547605299795951
-117.91376912378303 -11.639367969683425 0.8497253961530475
-117.41307371349096 -11.620939735496867 0.8446887837532513
-116.91237830319889 -11.60225848048608 0.8396508729258159
-116.41168289290681 -11.583323856759884 0.8346118438163614
-115.91098748261474 -11.564135516427099 0.8295718765704976
-115.41029207232268 -11.544693111596532 0.8245311513338445
-114.9095966620306 -11.52499629437701 0.8194898482520134
-114.40890125173853 -11.505044716877338 0.814448147470622
-113.90820584144646 -11.484838031206335 0.8094062291352824
-113.40751043115438 -11.464375889472821 0.8043642733916103
-112.90681502086231 -11.443657943785604 0.7993224603852216
-112.40611961057024 -11.422683846253504 0.7942809702617311
-111.90542420027816 -11.401453248985339 0.789239983166758
-111.4047287899861 -11.379965804089926 0.7841996792459112
-110.90403337969401 -11.358221163676072 0.7791602386448071
-110.40333796940195 -11.336218979852598 0.7741218415090607
-109.90264255910988 -11.313958904728318 0.7690846679842878
-109.4019471488178 -11.29144059041205 0.764048898216104
-108.90125173852573 -11.268663689012607 0.7590147123501243
-108.40055632823366 -11.245627852638806 0.7539822905319618
-107.89986091794158 -11.222332733399464 0.7489518129072321
-107.39916550764951 -11.198777983403394 0.7439234596215556
-106.89847009735745 -11.174963254759414 0.7388974108205382
-106.39777468706536 -11.150888199576334 0.7338738466497992
-105.8970792767733 -11.126552469962983 0.7288529472549552
-105.39638386648123 -11.101955718028156 0.7238348927816203
-104.89568845618915 -11.077097595880685 0.7188198633754066
-104.39499304589708 -11.05197775562939 0.7138080391819344
-103.89429763560501 -11.026595849383062 0.7087996003468158
-103.39360222531293 -11.00095152925054 0.7037947270156639
-102.89290681502086 -10.975044447340634 0.6987935993340981
-102.3922114047288 -10.948874255762151 0.6937963974477288
-101.89151599443672 -10.922440606623917 0.6888033015021717
-101.39082058414465 -10.895743152034749 0.6838144916430471
-100.89012517385257 -10.868781544103443 0.6788301480159644
-100.3894297635605 -10.841555434938842 0.6738504507665386
-99.88873435326843 -10.81406447664975 0.6688755800403889
-99.38803894297635 -10.786308321344963 0.6639057159831285
-98.88734353268428 -10.758286621133331 0.6589410387403687
-98.38664812239222 -10.729999028123652 0.6539817284577314
-97.88595271210013 -10.701445194424744 0.6490279652808253
-97.38525730180807 -10.672624772145413 0.6440799293552706
-96.884561891516 -10.643537413394492 0.6391378008266777
-96.38386648122392 -10.614182770280786 0.6342017598406651
-95.88317107093185 -10.584560494913108 0.6292719865428449
-95.38247566063978 -10.554670239400282 0.6243486610788365
-94.8817802503477 -10.52451165585112 0.6194319635942476
-94.38108484005564 -10.494084396374435 0.6145220742346993
-93.88038942976357 -10.463388113079047 0.6096191731458074
-93.37969401947149 -10.432422458073768 0.6047234404731778
-92.87899860917942 -10.401187083467414 0.5998350563624406
-92.37830319888734 -10.369681641368809 0.5949542009591955
-91.87760778859527 -10.337905783886756 0.5900810544090689
-91.3769123783032 -10.305859163130075 0.5852157968576694
-90.87621696801112 -10.273541431207589 0.5803586084506147
-90.37552155771905 -10.240952240228106 0.5755096693335204
-89.87482614742699 -10.208091242300435 0.570669159651997
-89.3741307371349 -10.174958089533407 0.5658372595516639
-88.87343532684284 -10.141552434035832 0.5610141491781331
-88.37273991655077 -10.107873927916517 0.556200008677024
-87.87204450625869 -10.07392222328429 0.5513950181939506
-87.37134909596662 -10.039696972247958 0.5465993578745199
-86.87065368567455 -10.005197826916346 0.541813207864358
-86.36995827538247 -9.970424439398256 0.5370367483090739
-85.8692628650904 -9.935376461802514 0.5322701593542867
-85.36856745479834 -9.900053546237936 0.5275136211456068
-84.86787204450626 -9.864455344813324 0.5227673138286519
-84.36717663421419 -9.828581509637518 0.5180314175490306
-83.86648122392211 -9.792431692819315 0.5133061124523728
-83.36578581363004 -9.756005546467529 0.5085915786842783
-82.86509040333797 -9.719302722690985 0.5038879963903717
-82.36439499304589 -9.682322873598503 0.49919554571626185
-81.86369958275382 -9.64506565129888 0.49451440680756603
-81.36300417246176 -9.607530707900947 0.4898447598099001
-80.86230876216968 -9.56971769551352 0.4851867848688763
-80.36161335187761 -9.531626266245405 0.4805406621301174
-79.86091794158554 -9.493256072205421 0.4759065717392286
-79.36022253129346 -9.454606765502392 0.4712846938418292
-78.85952712100139 -9.41567799824512 0.4666752085835331
-78.35883171070932 -9.37646942254243 0.46207829610995793
-77.85813630041724 -9.336980690503138 0.4574941365667194
-77.35744089012518 -9.297211454236054 0.4529229100994297
-76.85674547983311 -9.257161365849997 0.44836479685370106
-76.35605006954103 -9.21683007745378 0.4438199769751546
-75.85535465924896 -9.176217241156229 0.43928863060940065
-75.35465924895689 -9.135322509066137 0.43477093790205684
-74.85396383866481 -9.094145533292346 0.43026707899874067
-74.35326842837274 -9.052685965943661 0.4257772340450608
-73.85257301808066 -9.010943459128884 0.42130158318663474
-73.3518776077886 -8.96891766495685 0.41684030656908183
-72.85118219749653 -8.926608235536373 0.4123935843380107
-72.35048678720445 -8.88401482297625 0.4079615966390407
-71.84979137691238 -8.841137079385321 0.4035445236177804
-71.34909596662031 -8.79797465687239 0.39914254541985633
-70.84840055632823 -8.754527207546262 0.3947558421908735
-70.34770514603616 -8.710794383515774 0.3903845940764548
-69.8470097357441 -8.666775836889729 0.3860289812222036
-69.34631432545201 -8.622471219776935 0.38168918377374444
-68.84561891515995 -8.577880184286235 0.37736538187669316
-68.34492350486788 -8.533002382526421 0.37305775567666016
-67.8442280945758 -8.487837466606303 0.3687664853192612
-67.34353268428373 -8.442385088634724 0.36449175095011027
-66.84283727399166 -8.396644900720483 0.36023373271482667
-66.34214186369958 -8.350616554972381 0.35599261075902083
-65.84144645340751 -8.304299703499263 0.35176856522831207
-65.34075104311543 -8.257693998409936 0.3475617762683108
-64.84005563282336 -8.210799091813195 0.3433724240246346
-64.3393602225313 -8.163614635817877 0.3392006886428974
-63.838664812239216 -8.116140282532799 0.3350467502687185
-63.33796940194715 -8.06837568406676 0.3309107890477084
-62.83727399165508 -8.020320492528592 0.326792985125481
-62.336578581363 -7.971974360027099 0.32269351864765566
-61.83588317107093 -7.923336938671101 0.31861256975984104
-61.335187760778865 -7.874407880569416 0.31455031860766175
-60.834492350486784 -7.8251868378308576 0.3105069453367247
-60.333796940194716 -7.775673462564237 0.30648263009264914
-59.83310152990265 -7.725867406878377 0.30247755302104556
-59.33240611961057 -7.675768322882098 0.2984918942675368
-58.8317107093185 -7.625375862684196 0.29452583397772797
-58.33101529902643 -7.5746896783935025 0.29057955229724014
-57.83031988873435 -7.523709422118836 0.2866532293716873
-57.329624478442284 -7.472434745968998 0.282747045346687
-56.82892906815022 -7.420865302052812 0.2788611803678514
-56.328233657858135 -7.369000742479097 0.27499581458079275
-55.82753824756607 -7.316840719356664 0.2711511281311321
-55.326842837273986 -7.264384884794326 0.2673273011644817
-54.82614742698192 -7.21163289090091 0.2635245138264573
-54.32545201668985 -7.158584389785213 0.25974294626266753
-53.82475660639777 -7.105239033556069 0.2559827786187388
-53.3240611961057 -7.051596474322283 0.25224419104027623
-52.823365785813635 -6.9976563641926735 0.24852736367289913
-52.322670375521554 -6.94341835527606 0.2448324766622268
-51.82197496522949 -6.888882099681249 0.24115971015386256
-51.321279554937405 -6.834047249517061 0.23750924429343462
-50.82058414464535 -6.778913456892321 0.23388125922654807
-50.31988873435327 -6.723480373915828 0.23027593509882577
-49.81919332406119 -6.6677476526964075 0.22669345205587638
-49.318497913769136 -6.611714945342877 0.22313399024331743
-48.817802503477054 -6.555381903964038 0.21959772980676467
-48.31710709318497 -6.498748180668722 0.21608485089182677
-47.81641168289292 -6.441813427565743 0.21259553364413014
-47.31571627260084 -6.384577296763906 0.20912995820928343
-46.81502086230876 -6.327039440372028 0.20568830473289884
-46.3143254520167 -6.269199510498945 0.2022707533605957
-45.81363004172462 -6.211057159253448 0.19887748423798973
-45.31293463143254 -6.15261203874436 0.19550867751069495
-44.81223922114049 -6.093863801080511 0.19216451332432
-44.311543810848406 -6.034812098370688 0.18884517182449306
-43.810848400556324 -5.975456582723728 0.1855508331568157
-43.31015299026427 -5.915796906248454 0.18228167746691254
-42.80945757997219 -5.855832721053661 0.1790378849003887
-42.30876216968011 -5.795563679248156 0.1758196356028741
-41.808066759388026 -5.734989432940788 0.17262710971996859
-41.30737134909597 -5.674109634240368 0.1694604873972932
-40.80667593880389 -5.612923935255674 0.16631994878046724
-40.30598052851181 -5.55143198809556 0.16320567401510117
-39.80528511821976 -5.489633444868838 0.16011784324681072
-39.304589707927676 -5.427527957684299 0.1570566366212099
-38.803894297635594 -5.365115178650777 0.15402223428391265
-38.30319888734354 -5.302394759877098 0.1510148163805401
-37.80250347705146 -5.239366353472045 0.14803456305670265
-37.30180806675938 -5.176029611544459 0.1450816544580143
-36.801112656467325 -5.112384186203167 0.14215627073008902
-36.30041724617524 -5.048429729556945 0.13925859201854968
-35.79972183588316 -4.984165893714634 0.1363887984689996
-35.29902642559111 -4.919592330785067 0.1335470702270652
-34.79833101529903 -4.854708692877013 0.13073358743835511
-34.297635605006946 -4.789514632099321 0.12794853024848868
-33.79694019471489 -4.7240098005608235 0.12519207880307276
-33.29624478442281 -4.658193850370276 0.12246441324772844
-32.79554937413073 -4.592066433636541 0.11976571372807504
-32.294853963838676 -4.525627202468451 0.11709616038971588
-31.794158553546595 -4.458875808974762 0.11445593337827559
-31.293463143254513 -4.391811905264321 0.11184521283936638
-30.79276773296246 -4.324435143445969 0.10926417891860402
-30.29207232267038 -4.256745175628483 0.1067130117616007
-29.791376912378297 -4.188741653920681 0.10419189151397218
-29.290681502086244 -4.12042423043142 0.10170099832133778
-28.789986091794162 -4.05179255726946 0.09924051232930614
-28.28929068150208 -3.982846286543636 0.09681061368349658
-27.788595271210028 -3.9135850703628017 0.09441148252952664
-27.287899860917946 -3.84400856083572 0.0920432990130014
-26.787204450625865 -3.7741164100712106 0.08970624327954196
-26.28650904033381 -3.703908270178142 0.08740049547477119
-25.78581363004173 -3.6333837932652764 0.08512623574428885
-25.28511821974965 -3.5625426314414406 0.08288364423372135
-24.784422809457595 -3.491384436815482 0.08067290108867914
-24.283727399165514 -3.4199088614961632 0.0784941864547744
-23.783031988873432 -3.348115557592332 0.07634768047763357
-23.28233657858135 -3.276004177212807 0.07423356330285463
-22.781641168289298 -3.203574372466401 0.07215201507606755
-22.280945757997216 -3.1308257954619116 0.07010321594288099
-21.780250347705135 -3.0577580983081796 0.06808734604890893
-21.27955493741308 -2.98437093311401 0.06610458553976711
-20.778859527121 -2.9106639519882003 0.06415511456107131
-20.27816411682892 -2.8366368070395986 0.06223911325844261
-19.777468706536865 -2.762289150377003 0.06035676177748256
-19.276773296244784 -2.687620634109218 0.05850824026381757
-18.776077885952702 -2.6126309103450844 0.05669372886305629
-18.27538247566065 -2.5373196311934145 0.054913407720821594
-17.774687065368568 -2.461686448762999 0.0531674569827168
-17.273991655076486 -2.3857310151626643 0.051456056794366545
-16.773296244784433 -2.309452982501251 0.049779387301379485
-16.27260083449235 -2.2328520028875425 0.04813762864937848
-15.77190542420027 -2.1559277284303726 0.04653096098397219
-15.271210013908217 -2.0786798112385534 0.04495956445077637
-14.770514603616135 -2.00110790342089 0.04342361919540855
-14.269819193324054 -1.9232116570862154 0.04192330536347916
-13.769123783032 -1.8449907243433423 0.04045880310060751
-13.268428372739919 -1.7664447573010684 0.03903029255240403
-12.767732962447838 -1.687573408068213 0.037637953864495144
-12.267037552155784 -1.6083763287536166 0.03628196718248061
-11.766342141863703 -1.52885317146607 0.0349625126519833
-11.265646731571621 -1.4490035883144068 0.03367977041861897
-10.764951321279568 -1.3688272314074177 0.0324339206280016
-10.264255910987487 -1.2883237528539504 0.031225143425743396
-9.763560500695405 -1.2074928047627957 0.030053618957463668
-9.262865090403352 -1.1263340392427659 0.028919527368774622
-8.76216968011127 -1.0448471084027084 0.027823048805288464
