Polar data for 2 at Re = 145714.28571428574
Alpha (deg) Cl Cd
-180.0 -12.076796201595467 1.4055651218555847
-179.49930458970792 -12.08704639293378 1.4020856429991133
-178.99860917941587 -12.097086701954732 1.398582527658743
-178.49791376912378 -12.106916780767136 1.3950559559800884
-177.9972183588317 -12.116536281479808 1.3915061081087663
-177.49652294853965 -12.12594485620157 1.3879331641903898
-176.99582753824757 -12.135142157041228 1.3843373043705747
-176.4951321279555 -12.144127836107604 1.3807187087949366
-175.99443671766343 -12.152901545509515 1.3770775576090897
-175.49374130737135 -12.161462937355768 1.3734140309586496
-174.99304589707927 -12.16981166375519 1.3697283089892311
-174.49235048678722 -12.177947376816588 1.3660205718464484
-173.99165507649514 -12.18586972864878 1.362290999675918
-173.49095966620305 -12.193578371360584 1.358539772623253
-172.990264255911 -12.201072957060811 1.354767070834071
-172.48956884561892 -12.20835313785828 1.3509730744539843
-171.98887343532684 -12.21541856586181 1.3471579636286102
-171.48817802503476 -12.222268893180209 1.3433219185035619
-170.9874826147427 -12.228903771922296 1.339465119224455
-170.48678720445062 -12.235322854196891 1.3355877459369048
-169.98609179415854 -12.2415257921128 1.3316899787865275
-169.4853963838665 -12.247512237778844 1.3277719979189346
-168.9847009735744 -12.253281843303846 1.3238339834797455
-168.48400556328232 -12.258834260796608 1.3198761156145722
-167.98331015299027 -12.264169142365958 1.3158985744690315
-167.4826147426982 -12.269286140120698 1.3119015401887364
-166.9819193324061 -12.274184906169655 1.3078851929193027
-166.48122392211405 -12.278865092621643 1.303849712806347
-165.98052851182197 -12.283326351585472 1.2997952799954826
-165.4798331015299 -12.287568335169963 1.295722074632325
-164.97913769123784 -12.291590695483931 1.2916302768624883
-164.47844228094576 -12.295393084636189 1.28752006683159
-163.97774687065368 -12.298975154735553 1.2833916246852424
-163.47705146036162 -12.302336557890843 1.279245130569062
-162.97635605006954 -12.305476946210867 1.2750807646286628
-162.47566063977746 -12.308395971804451 1.2708987070096616
-161.9749652294854 -12.3110932867804 1.2666991378576722
-161.47426981919332 -12.313568543247532 1.2624822373183078
-160.97357440890124 -12.315821393314671 1.2582481855371876
-160.4728789986092 -12.317851489090623 1.2539971626599222
-159.9721835883171 -12.319658482684206 1.2497293488321308
-159.47148817802503 -12.32124202620424 1.2454449241994257
-158.97079276773297 -12.322601771759537 1.2411440689074242
-158.4700973574409 -12.32373737145891 1.2368269631017361
-157.9694019471488 -12.32464847741118 1.2324937869279815
-157.46870653685676 -12.32533474172516 1.2281447205317735
-156.96801112656468 -12.325795816509665 1.2237799440587287
-156.4673157162726 -12.326031353873512 1.2193996376544602
-155.96662030598054 -12.326041005925516 1.2150039814645848
-155.46592489568846 -12.325824424774497 1.2105931556347163
-154.96522948539638 -12.325381262529259 1.2061673403104687
-154.46453407510432 -12.324711171298627 1.2017267156374587
-153.96383866481224 -12.32381380319142 1.1972714617613012
-153.46314325452016 -12.322688810316443 1.192801758827611
-152.9624478442281 -12.321335844782517 1.188317786982003
-152.46175243393603 -12.319754558698463 1.1838197263700894
-151.96105702364395 -12.317944604173086 1.1793077571374904
-151.4603616133519 -12.315905633315205 1.174782059429819
-150.9596662030598 -12.313637298233644 1.1702428133926903
-150.45897079276773 -12.311139251037208 1.1656901991717181
-149.95827538247568 -12.308411143834718 1.1611243969125182
-149.4575799721836 -12.305452628734987 1.1565455867607046
-148.9568845618915 -12.30226335784683 1.1519539488618922
-148.45618915159943 -12.298842983279071 1.1473496633617002
-147.95549374130738 -12.295191157140513 1.142732910405739
-147.4547983310153 -12.291307531539978 1.1381038701396256
-146.95410292072324 -12.287191758586289 1.1334627227089744
-146.45340751043116 -12.282843490388245 1.1288096482594006
-145.95271210013908 -12.278262379054674 1.124144826936517
-145.452016689847 -12.27344807669439 1.1194684388859442
-144.95132127955495 -12.268400235416205 1.1147806642532914
-144.45062586926286 -12.26311850732894 1.1100816831841762
-143.94993045897078 -12.257602544541403 1.1053716758242127
-143.44923504867873 -12.251851999162415 1.1006508223190183
-142.94853963838665 -12.245866523300794 1.095919302814208
-142.44784422809457 -12.239645769065348 1.0911772974553922
-141.9471488178025 -12.233189388564895 1.08642498638819
-141.44645340751043 -12.226497033908258 1.081662549758214
-140.94575799721835 -12.219568357204242 1.0768901677110814
-140.44506258692627 -12.212403010561669 1.072108020392408
-139.94436717663422 -12.205000646089356 1.0673162879478044
-139.44367176634213 -12.197360915896112 1.0625151505228907
-138.94297635605005 -12.189483472090759 1.057704788263279
-138.442280945758 -12.181367966782112 1.0528853813145835
-137.94158553546592 -12.173014052078981 1.0480571098224207
-137.44089012517384 -12.164421380090186 1.0432201539324073
-136.94019471488178 -12.155589602924543 1.0383746937901563
-136.4394993045897 -12.146518372690867 1.033520909541281
-135.93880389429762 -12.137207341497973 1.0286589813314004
-135.43810848400557 -12.127656161454677 1.023789089306127
-134.9374130737135 -12.117864484669793 1.0189114136110764
-134.4367176634214 -12.10783196325214 1.01402613439186
-133.93602225312935 -12.097558249310532 1.0091334317941005
-133.43532684283727 -12.087042994953782 1.0042334859634077
-132.9346314325452 -12.076285852290713 0.9993264770453998
-132.43393602225314 -12.065286473430131 0.9944125851856873
-131.93324061196105 -12.054044510480859 0.9894919905298869
-131.43254520166897 -12.042559615551706 0.9845648732236134
-130.93184979137692 -12.030831440751495 0.9796314134124853
-130.43115438108484 -12.018859638189038 0.9746917912421138
-129.93045897079276 -12.00664385997315 0.9697461868581156
-129.4297635605007 -11.994183758212648 0.9647947804061066
-128.92906815020862 -11.981478985016349 0.959837752031697
-128.42837273991654 -11.968529192493062 0.9548752818805106
-127.92767732962449 -11.955334032751608 0.9499075500981526
-127.4269819193324 -11.941893157900807 0.9449347368302441
-126.92628650904032 -11.928206220049464 0.9399570222223963
-126.42559109874827 -11.914272871306405 0.9349745864202295
-125.92489568845619 -11.900092763780439 0.9299876095693549
-125.42420027816411 -11.885665549580382 0.9249962718153875
-124.92350486787205 -11.870990880815054 0.9200007533039429
-124.42280945757997 -11.856068409593263 0.9150012341806353
-123.92211404728789 -11.840897788023831 0.9099978945910847
-123.42141863699584 -11.825478668215577 0.9049909146808999
-122.92072322670376 -11.809810702277307 0.8999804745956974
-122.42002781641168 -11.79389354231784 0.8949667544810922
-121.91933240611961 -11.777726840445997 0.8899499344827035
-121.41863699582754 -11.761310248770588 0.884930194746141
-120.91794158553546 -11.744643419400427 0.8799077154170185
-120.41724617524339 -11.727726004444339 0.8748826766409581
-119.91655076495132 -11.71055765601113 0.8698552585635702
-119.41585535465924 -11.693138026209617 0.8648256413304696
-118.91515994436718 -11.67546676714862 0.8597940050872739
-118.41446453407511 -11.657543530936952 0.8547605299795953
-117.91376912378303 -11.63936796968343 0.8497253961530478
-117.41307371349096 -11.620939735496869 0.8446887837532515
-116.91237830319889 -11.602258480486078 0.8396508729258179
-116.41168289290681 -11.583323856759886 0.8346118438163617
-115.91098748261474 -11.564135516427097 0.8295718765704978
-115.41029207232268 -11.544693111596533 0.8245311513338447
-114.9095966620306 -11.524996294377011 0.8194898482520137
-114.40890125173853 -11.505044716877336 0.8144481474706222
-113.90820584144646 -11.484838031206333 0.8094062291352808
-113.40751043115438 -11.46437588947282 0.8043642733916105
-112.90681502086231 -11.443657943785606 0.7993224603852218
-112.40611961057024 -11.42268384625351 0.794280970261733
-111.90542420027816 -11.40145324898534 0.7892399831667583
-111.4047287899861 -11.379965804089924 0.7841996792459114
-110.90403337969401 -11.358221163676074 0.7791602386448073
-110.40333796940195 -11.336218979852596 0.7741218415090609
-109.90264255910988 -11.313958904728317 0.769084667984288
-109.4019471488178 -11.291440590412048 0.7640488982161042
-108.90125173852573 -11.268663689012609 0.7590147123501245
-108.40055632823366 -11.245627852638808 0.753982290531962
-107.89986091794158 -11.222332733399465 0.7489518129072323
-107.39916550764951 -11.198777983403396 0.7439234596215558
-106.89847009735745 -11.174963254759412 0.7388974108205384
-106.39777468706536 -11.150888199576336 0.7338738466497994
-105.8970792767733 -11.12655246996298 0.7288529472549554
-105.39638386648123 -11.101955718028158 0.7238348927816205
-104.89568845618915 -11.077097595880687 0.7188198633754068
-104.39499304589708 -11.051977755629387 0.7138080391819346
-103.89429763560501 -11.026595849383064 0.708799600346816
-103.39360222531293 -11.000951529250539 0.7037947270156641
-102.89290681502086 -10.975044447340633 0.6987935993340983
-102.3922114047288 -10.948874255762153 0.693796397447729
-101.89151599443672 -10.922440606623919 0.688803301502172
-101.39082058414465 -10.895743152034747 0.6838144916430473
-100.89012517385257 -10.868781544103445 0.6788301480159646
-100.3894297635605 -10.841555434938844 0.6738504507665388
-99.88873435326843 -10.814064476649751 0.6688755800403892
-99.38803894297635 -10.786308321344965 0.663905715983127
-98.88734353268428 -10.758286621133333 0.6589410387403689
-98.38664812239222 -10.729999028123654 0.6539817284577316
-97.88595271210013 -10.701445194424736 0.6490279652808255
-97.38525730180807 -10.672624772145415 0.6440799293552726
-96.884561891516 -10.643537413394494 0.6391378008266779
-96.38386648122392 -10.614182770280788 0.6342017598406653
-95.88317107093185 -10.58456049491311 0.6292719865428451
-95.38247566063978 -10.554670239400284 0.6243486610788367
-94.8817802503477 -10.524511655851121 0.619431963594246
-94.38108484005564 -10.494084396374436 0.6145220742346995
-93.88038942976357 -10.463388113079048 0.6096191731458076
-93.37969401947149 -10.43242245807377 0.6047234404731798
-92.87899860917942 -10.401187083467416 0.5998350563624391
-92.37830319888734 -10.36968164136881 0.5949542009591957
-91.87760778859527 -10.337905783886757 0.5900810544090709
-91.3769123783032 -10.305859163130076 0.5852157968576697
-90.87621696801112 -10.273541431207587 0.5803586084506132
-90.37552155771905 -10.240952240228104 0.5755096693335189
-89.87482614742699 -10.208091242300437 0.5706691596519955
-89.3741307371349 -10.174958089533408 0.5658372595516623
-88.87343532684284 -10.141552434035834 0.5610141491781351
-88.37273991655077 -10.107873927916518 0.556200008677026
-87.87204450625869 -10.073922223284292 0.5513950181939491
-87.37134909596662 -10.039696972247963 0.5465993578745201
-86.87065368567455 -10.00519782691634 0.54181320786436
-86.36995827538247 -9.970424439398258 0.5370367483090741
-85.8692628650904 -9.935376461802516 0.5322701593542851
-85.36856745479834 -9.900053546237931 0.5275136211456088
-84.86787204450626 -9.864455344813326 0.5227673138286504
-84.36717663421419 -9.828581509637516 0.5180314175490326
-83.86648122392211 -9.792431692819317 0.5133061124523748
-83.36578581363004 -9.75600554646753 0.5085915786842803
-82.86509040333797 -9.719302722690987 0.5038879963903702
-82.36439499304589 -9.682322873598505 0.49919554571626024
-81.86369958275382 -9.645065651298882 0.4945144068075662
-81.36300417246176 -9.607530707900949 0.4898447598099003
-80.86230876216968 -9.569717695513521 0.48518678486887645
-80.36161335187761 -9.531626266245407 0.4805406621301176
-79.86091794158554 -9.493256072205423 0.475906571739227
-79.36022253129346 -9.454606765502394 0.47128469384182936
-78.85952712100139 -9.415677998245123 0.46667520858353506
-78.35883171070932 -9.376469422542431 0.4620782961099581
-77.85813630041724 -9.33698069050314 0.4574941365667178
-77.35744089012518 -9.297211454236056 0.45292291009942987
-76.85674547983311 -9.25716136585 0.44836479685370123
-76.35605006954103 -9.216830077453782 0.44381997697515296
-75.85535465924896 -9.176217241156223 0.4392886306094026
-75.35465924895689 -9.135322509066139 0.4347709379020588
-74.85396383866481 -9.094145533292352 0.43026707899874084
-74.35326842837274 -9.052685965943656 0.42577723404506096
-73.85257301808066 -9.010943459128885 0.4213015831866349
-73.3518776077886 -8.968917664956852 0.416840306569082
-72.85118219749653 -8.926608235536367 0.4123935843380091
-72.35048678720445 -8.884014822976251 0.4079615966390391
-71.84979137691238 -8.84113707938532 0.40354452361778237
-71.34909596662031 -8.797974656872391 0.3991425454198565
-70.84840055632823 -8.754527207546264 0.39475584219087545
-70.34770514603616 -8.710794383515776 0.390384594076455
-69.8470097357441 -8.66677583688973 0.38602898122220375
-69.34631432545201 -8.622471219776937 0.3816891837737464
-68.84561891515995 -8.577880184286236 0.37736538187669155
-68.34492350486788 -8.533002382526423 0.37305775567665855
-67.8442280945758 -8.487837466606308 0.3687664853192578
-67.34353268428373 -8.442385088634726 0.3644917509501122
-66.84283727399166 -8.396644900720485 0.36023373271482684
-66.34214186369958 -8.350616554972383 0.355992610759021
-65.84144645340751 -8.304299703499264 0.35176856522831046
-65.34075104311543 -8.257693998409938 0.3475617762683092
-64.84005563282336 -8.210799091813193 0.34337242402463475
-64.3393602225313 -8.163614635817883 0.33920068864289754
-63.838664812239216 -8.1161402825328 0.3350467502687169
-63.33796940194715 -8.068375684066755 0.33091078904770854
-62.83727399165508 -8.02032049252859 0.32679298512548116
-62.336578581363 -7.971974360027101 0.32269351864765583
-61.83588317107093 -7.9233369386710955 0.318612569759843
-61.335187760778865 -7.874407880569414 0.3145503186076637
-60.834492350486784 -7.825186837830859 0.31050694533672485
-60.333796940194716 -7.775673462564235 0.3064826300926511
-59.83310152990265 -7.725867406878379 0.3024775530210475
-59.33240611961057 -7.675768322882103 0.2984918942675352
-58.8317107093185 -7.625375862684198 0.29452583397772814
-58.33101529902643 -7.574689678393504 0.29057955229723853
-57.83031988873435 -7.523709422118838 0.28665322937168924
-57.329624478442284 -7.472434745969 0.28274704534668893
-56.82892906815022 -7.420865302052814 0.2788611803678498
-56.328233657858135 -7.369000742479102 0.2749958145807947
-55.82753824756607 -7.316840719356666 0.27115112813113407
-55.326842837273986 -7.264384884794328 0.26732730116448367
-54.82614742698192 -7.211632890900912 0.2635245138264557
-54.32545201668985 -7.158584389785215 0.2597429462626677
-53.82475660639777 -7.105239033556071 0.2559827786187372
-53.3240611961057 -7.0515964743222845 0.2522441910402764
-52.823365785813635 -6.997656364192675 0.24852736367290107
-52.322670375521554 -6.943418355276055 0.24483247666222518
-51.82197496522949 -6.8888820996812505 0.2411597101538645
-51.321279554937405 -6.8340472495170665 0.237509244293433
-50.82058414464535 -6.778913456892315 0.23388125922654823
-50.31988873435327 -6.72348037391583 0.23027593509882416
-49.81919332406119 -6.667747652696409 0.22669345205587654
-49.318497913769136 -6.611714945342872 0.22313399024331582
-48.817802503477054 -6.555381903964037 0.2195977298067613
-48.31710709318497 -6.49874818066872 0.21608485089182872
-47.81641168289292 -6.441813427565734 0.21259553364412853
-47.31571627260084 -6.384577296763904 0.20912995820928182
-46.81502086230876 -6.327039440372033 0.20568830473290078
-46.3143254520167 -6.269199510498947 0.20227075336059586
-45.81363004172462 -6.211057159253446 0.19887748423799168
-45.31293463143254 -6.152612038744362 0.19550867751069512
-44.81223922114049 -6.093863801080509 0.19216451332432194
-44.311543810848406 -6.034812098370693 0.18884517182449323
-43.810848400556324 -5.975456582723734 0.18555083315681764
-43.31015299026427 -5.915796906248453 0.18228167746691448
-42.80945757997219 -5.855832721053655 0.17903788490039063
-42.30876216968011 -5.795563679248161 0.17581963560287606
-41.808066759388026 -5.7349894329407896 0.17262710971996875
-41.30737134909597 -5.674109634240363 0.16946048739729513
-40.80667593880389 -5.612923935255676 0.1663199487804674
-40.30598052851181 -5.551431988095555 0.1632056740151031
-39.80528511821976 -5.489633444868833 0.1601178432468109
-39.304589707927676 -5.427527957684301 0.15705663662121183
-38.803894297635594 -5.365115178650779 0.1540222342839146
-38.30319888734354 -5.302394759877092 0.15101481638054204
-37.80250347705146 -5.239366353472047 0.14803456305670104
-37.30180806675938 -5.176029611544461 0.14508165445801446
-36.801112656467325 -5.112384186203162 0.14215627073009096
-36.30041724617524 -5.048429729556947 0.13925859201854984
-35.79972183588316 -4.984165893714636 0.13638879846900154
-35.29902642559111 -4.919592330785061 0.13354707022706536
-34.79833101529903 -4.854708692877015 0.13073358743835706
-34.297635605006946 -4.789514632099323 0.12794853024848707
-33.79694019471489 -4.724009800560818 0.1251920788030747
-33.29624478442281 -4.658193850370285 0.12246441324773039
-32.79554937413073 -4.59206643363655 0.11976571372807521
-32.294853963838676 -4.525627202468446 0.11709616038971782
-31.794158553546595 -4.458875808974756 0.11445593337827575
-31.293463143254513 -4.39181190526433 0.11184521283936832
-30.79276773296246 -4.324435143445971 0.10926417891860418
-30.29207232267038 -4.2567451756284775 0.10671301176160264
-29.791376912378297 -4.188741653920683 0.10419189151397412
-29.290681502086244 -4.120424230431414 0.10170099832133617
-28.789986091794162 -4.051792557269454 0.09924051232930453
-28.28929068150208 -3.982846286543644 0.09681061368349675
-27.788595271210028 -3.9135850703627955 0.09441148252952858
-27.287899860917946 -3.844008560835707 0.09204329901300157
-26.787204450625865 -3.7741164100712186 0.0897062432795439
-26.28650904033381 -3.70390827017815 0.0874004954747678
-25.78581363004173 -3.6333837932652773 0.08512623574429079
-25.28511821974965 -3.5625426314414415 0.08288364423371974
-24.784422809457595 -3.491384436815476 0.08067290108868108
-24.283727399165514 -3.419908861496157 0.07849418645477635
-23.783031988873432 -3.3481155575923327 0.07634768047763374
-23.28233657858135 -3.276004177212808 0.07423356330285658
-22.781641168289298 -3.2035743724663948 0.07215201507606772
-22.280945757997216 -3.1308257954619125 0.07010321594288293
-21.780250347705135 -3.0577580983081734 0.06808734604891087
-21.27955493741308 -2.9843709331140107 0.06610458553976906
-20.778859527121 -2.910663951988201 0.06415511456107326
-20.27816411682892 -2.8366368070395995 0.06223911325844278
-19.777468706536865 -2.7622891503770037 0.0603567617774845
-19.276773296244784 -2.687620634109219 0.058508240263817735
-18.776077885952702 -2.6126309103450924 0.056693728863058235
-18.27538247566065 -2.5373196311934083 0.05491340772081821
-17.774687065368568 -2.461686448762993 0.05316745698271874
-17.273991655076486 -2.3857310151626723 0.05145605679436849
-16.773296244784433 -2.309452982501259 0.04977938730138143
-16.27260083449235 -2.2328520028875434 0.048137628649380426
-15.77190542420027 -2.1559277284303735 0.04653096098397236
-15.271210013908217 -2.0786798112385543 0.04495956445077831
-14.770514603616135 -2.0011079034208907 0.043423619195408714
-14.269819193324054 -1.9232116570862163 0.0419233053634811
-13.769123783032 -1.844990724343336 0.040458803100607676
-13.268428372739919 -1.766444757301055 0.039030292552405976
-12.767732962447838 -1.687573408068221 0.03763795386449709
-12.267037552155784 -1.6083763287536175 0.036281967182482555
-11.766342141863703 -1.528853171466071 0.034962512651985245
-11.265646731571621 -1.4490035883144006 0.03367977041861914
-10.764951321279568 -1.3688272314074257 0.03243392062800354
-10.264255910987487 -1.2883237528539513 0.031225143425743562
-9.763560500695405 -1.2074928047627895 0.03005361895746561
-9.262865090403352 -1.1263340392427739 0.02891952736877479
-8.76216968011127 -1.0448471084027093 0.027823048805290407
