Polar data for 2 at Re = 294285.7142857143
Alpha (deg) Cl Cd
-180.0 -13.629129590551187 1.6906795045499776
-179.49930458970792 -13.632236780630397 1.6865002213374294
-178.99860917941587 -13.635102998003958 1.6822921702566291
-178.49791376912378 -13.63772827334871 1.6780555693493748
-177.9972183588317 -13.640112637341463 1.67379063665746
-177.49652294853965 -13.642256120659045 1.6694975902226843
-176.99582753824757 -13.644158753978264 1.6651766480868395
-176.4951321279555 -13.64582056797596 1.6608280282917254
-175.99443671766343 -13.647241593328928 1.6564519488791372
-175.49374130737135 -13.64842186071402 1.6520486278908693
-174.99304589707927 -13.649361400808036 1.6476182833687196
-174.49235048678722 -13.650060244287804 1.6431611333544835
-173.99165507649514 -13.650518421830142 1.6386773958899563
-173.49095966620305 -13.65073596411187 1.634167289016935
-172.990264255911 -13.650712901809815 1.6296310307772157
-172.48956884561892 -13.650449265600795 1.6250688392125956
-171.98887343532684 -13.649945086161633 1.620480932364869
-171.48817802503476 -13.649200394169139 1.6158675282758321
-170.9874826147427 -13.648215220300152 1.6112288449872838
-170.48678720445062 -13.646989595231474 1.606565100541014
-169.98609179415854 -13.645523549639947 1.601876512978826
-169.4853963838665 -13.643817114202367 1.5971633003425096
-168.9847009735744 -13.64187031959558 1.5924256806738657
-168.48400556328232 -13.639683196496389 1.5876638720146885
-167.98331015299027 -13.637255775581625 1.5828780924067751
-167.4826147426982 -13.634588087528101 1.5780685598919209
-166.9819193324061 -13.63168016301265 1.57323549251192
-166.48122392211405 -13.628532032712076 1.5683791083085699
-165.98052851182197 -13.625143727303218 1.5634996253236682
-165.4798331015299 -13.62151527746288 1.5585972615990102
-164.97913769123784 -13.617646713867899 1.5536722351763896
-164.47844228094576 -13.61353806719508 1.548724764097606
-163.97774687065368 -13.609189368121253 1.5437550664044548
-163.47705146036162 -13.604600647323238 1.5387633601387294
-162.97635605006954 -13.599771935477861 1.5337498633422295
-162.47566063977746 -13.594703263261945 1.5287147940567496
-161.9749652294854 -13.589394661352298 1.5236583703240858
-161.47426981919332 -13.583846160425736 1.5185808101860299
-160.97357440890124 -13.5780577911591 1.5134823316843868
-160.4728789986092 -13.572029584229202 1.5083631528609467
-159.9721835883171 -13.565761570312858 1.5032234917575082
-159.47148817802503 -13.559253780086905 1.4980635664158632
-158.97079276773297 -13.552506244228145 1.4928835948778132
-158.4700973574409 -13.54551899341341 1.4876837951851516
-157.9694019471488 -13.538292058319513 1.4824643853796728
-157.46870653685676 -13.53082546962328 1.4772255835031767
-156.96801112656468 -13.52311925800154 1.4719676075974575
-156.4673157162726 -13.515173454131101 1.4666906757043106
-155.96662030598054 -13.506988088688786 1.461395005865532
-155.46592489568846 -13.498563192351426 1.4560808161229217
-154.96522948539638 -13.489898795795824 1.4507483245182704
-154.46453407510432 -13.48099492969882 1.445397749093377
-153.96383866481224 -13.47185162473722 1.4400293078900357
-153.46314325452016 -13.462468911587862 1.4346432189500464
-152.9624478442281 -13.452846820927547 1.4292397003152009
-152.46175243393603 -13.442985383433115 1.423818970027296
-151.96105702364395 -13.432884629781366 1.4183812461281318
-151.4603616133519 -13.422544590649139 1.4129267466595006
-150.9596662030598 -13.411965296713248 1.4074556896632004
-150.45897079276773 -13.40114677865051 1.4019682931810222
-149.95827538247568 -13.390089067137762 1.3964647752547719
-149.4575799721836 -13.378792192851801 1.3909453539262358
-148.9568845618915 -13.367256186469469 1.3854102472372136
-148.45618915159943 -13.355481078667573 1.3798596732295052
-147.95549374130738 -13.343466900122944 1.3742938499449031
-147.4547983310153 -13.331213681512391 1.3687129954252035
-146.95410292072324 -13.318721453512754 1.3631173277122008
-146.45340751043116 -13.305990246800832 1.357507064847693
-145.95271210013908 -13.29302009205346 1.3518824248734762
-145.452016689847 -13.279811019947456 1.3462436258313475
-144.95132127955495 -13.266363061159645 1.3405908857631021
-144.45062586926286 -13.252676246366832 1.3349244227105355
-143.94993045897078 -13.238750606245858 1.3292444547154427
-143.44923504867873 -13.224586171473526 1.3235511998196228
-142.94853963838665 -13.210182972726678 1.3178448760648735
-142.44784422809457 -13.195541040682116 1.312125701492986
-141.9471488178025 -13.18066040601667 1.3063938941457551
-141.44645340751043 -13.165541099407157 1.30064967206498
-140.94575799721835 -13.150183151530399 1.2948932532924604
-140.44506258692627 -13.134586593063226 1.2891248558699862
-139.94436717663422 -13.118751454682439 1.283344697839357
-139.44367176634213 -13.102677767064886 1.27755299724237
-138.94297635605005 -13.086365560887359 1.271749972120817
-138.442280945758 -13.0698148668267 1.2659358405164949
-137.94158553546592 -13.053025715559723 1.2601108204712044
-137.44089012517384 -13.035998137763247 1.2542751300267372
-136.94019471488178 -13.018732164114095 1.2484289872248922
-136.4394993045897 -13.001227825289096 1.2425726101074601
-135.93880389429762 -12.983485151965045 1.2367062167162444
-135.43810848400557 -12.965504174818797 1.2308300250930357
-134.9374130737135 -12.947284924527146 1.2249442532796322
-134.4367176634214 -12.928827431766933 1.2190491193178281
-133.93602225312935 -12.910131727214964 1.213144841249425
-133.43532684283727 -12.891197841548067 1.2072316371162137
-132.9346314325452 -12.872025805443062 1.2013097249599904
-132.43393602225314 -12.85261564957677 1.195379322822553
-131.93324061196105 -12.832967404626007 1.1894406487456997
-131.43254520166897 -12.8130811012676 1.1834939207712192
-130.93184979137692 -12.792956770178378 1.1775393569409185
-130.43115438108484 -12.772594442035146 1.171577175296584
-129.93045897079276 -12.751994147514733 1.1656075938800181
-129.4297635605007 -12.731155917293957 1.1596308307330099
-128.92906815020862 -12.710079782049636 1.1536471038973626
-128.42837273991654 -12.688765772458598 1.1476566314148706
-127.92767732962449 -12.667213919197668 1.1416596313273266
-127.4269819193324 -12.645424252943652 1.1356563216765294
-126.92628650904032 -12.623396804373385 1.1296469205042743
-126.42559109874827 -12.60113160416368 1.123631645852361
-125.92489568845619 -12.578628682991361 1.1176107157625785
-125.42420027816411 -12.555888071533246 1.1115843482767285
-124.92350486787205 -12.532909800466165 1.1055527614366052
-124.42280945757997 -12.509693900466925 1.099516173284003
-123.92211404728789 -12.486240402212363 1.0934748018607237
-123.42141863699584 -12.46254933637928 1.087428865208556
-122.92072322670376 -12.438620733644516 1.0813785813693033
-122.42002781641168 -12.414454624684879 1.0753241683847548
-121.91933240611961 -12.390051040177205 1.0692658442967082
-121.41863699582754 -12.365410010798293 1.0632038271469653
-120.91794158553546 -12.340531567224982 1.057138334977315
-120.41724617524339 -12.315415740134085 1.0510695858295587
-119.91655076495132 -12.29006256020243 1.0449977977454874
-119.41585535465924 -12.264472058106826 1.0389231887669044
-118.91515994436718 -12.238644264524108 1.0328459769355987
-118.41446453407511 -12.212579210131082 1.0267663802933664
-117.91376912378303 -12.186276925604577 1.020684616882011
-117.41307371349096 -12.159737441621424 1.014600904743323
-116.91237830319889 -12.132960788858426 1.0085154619190955
-116.41168289290681 -12.105946997992419 1.002428506451135
-115.91098748261474 -12.078696099700217 0.9963402563812251
-115.41029207232268 -12.051208124658633 0.9902509297511712
-114.9095966620306 -12.023483103544496 0.984160744602764
-114.40890125173853 -11.995521067034634 0.9780699189778033
-113.90820584144646 -11.967322045805854 0.9719786709180851
-113.40751043115438 -11.938886070534988 0.9658872184653986
-112.90681502086231 -11.910213171898842 0.9597957796615488
-112.40611961057024 -11.881303380574263 0.9537045725483266
-111.90542420027816 -11.85215672723805 0.9476138151675317
-111.4047287899861 -11.822773242567038 0.9415237255609568
-110.90403337969401 -11.793152957238028 0.9354345217704014
-110.40333796940195 -11.763295901927865 0.9293464218376584
-109.90264255910988 -11.73320210731335 0.9232596438045237
-109.4019471488178 -11.702871604071312 0.9171744057127955
-108.90125173852573 -11.672304422878579 0.9110909256042699
-108.40055632823366 -11.64150059441197 0.9050094215207412
-107.89986091794158 -11.610460149348288 0.8989301115040074
-107.39916550764951 -11.57918311836438 0.8928532135958647
-106.89847009735745 -11.547669532137043 0.8867789458381057
-106.39777468706536 -11.51591942134311 0.8807075262725284
-105.8970792767733 -11.483932816659408 0.8746391729409324
-105.39638386648123 -11.451709748762752 0.8685741038851087
-104.89568845618915 -11.419250248329963 0.8625125371468569
-104.39499304589708 -11.386554346037851 0.8564546907679715
-103.89429763560501 -11.353622072563265 0.8504007827902504
-103.39360222531293 -11.320453458582993 0.8443510312554863
-102.89290681502086 -11.287048534773877 0.838305654205477
-102.3922114047288 -11.253407331812735 0.8322648696820205
-101.89151599443672 -11.219529880376374 0.8262288957269095
-101.39082058414465 -11.185416211141632 0.8201979503819437
-100.89012517385257 -11.151066354785332 0.8141722516889156
-100.3894297635605 -11.116480341984275 0.8081520176896215
-99.88873435326843 -11.081658203415312 0.8021374664258611
-99.38803894297635 -11.046599969755224 0.7961288159394289
-98.88734353268428 -11.011305671680876 0.7901262842721173
-98.38664812239222 -10.975775339869049 0.7841300894657297
-97.88595271210013 -10.940009004996579 0.7781404495620552
-97.38525730180807 -10.90400669774031 0.7721575826028935
-96.884561891516 -10.867768448777039 0.7661817066300407
-96.38386648122392 -10.831294288783578 0.7602130396852895
-95.88317107093185 -10.794584248436774 0.7542517998104414
-95.38247566063978 -10.757638358413427 0.7482982050472908
-94.8817802503477 -10.72045664939036 0.7423524734376268
-94.38108484005564 -10.683039152044419 0.7364148230232561
-93.88038942976357 -10.645385897052389 0.7304854718459697
-93.37969401947149 -10.607496915091115 0.7245646379475637
-92.87899860917942 -10.569372236837406 0.7186525393698342
-92.37830319888734 -10.531011892968092 0.7127493941545757
-91.87760778859527 -10.49241591415998 0.7068554203435897
-91.3769123783032 -10.453584331089925 0.7009708359786688
-90.87621696801112 -10.414517174434703 0.6950958591016074
-90.37552155771905 -10.375214474871154 0.6892307077542017
-89.87482614742699 -10.335676263076113 0.6833755999782514
-89.3741307371349 -10.295902569726383 0.6775307538155508
-88.87343532684284 -10.255893425498787 0.6716963873078945
-88.37273991655077 -10.21564886107016 0.6658727184970803
-87.87204450625869 -10.175168907117307 0.6600599654249044
-87.37134909596662 -10.13445359431704 0.6542583461331577
-86.87065368567455 -10.09350295334622 0.6484680786636505
-86.36995827538247 -10.052317014881627 0.6426893810581595
-85.8692628650904 -10.010895809600097 0.6369224713584969
-85.36856745479834 -9.96923936817846 0.6311675676064517
-84.86787204450626 -9.927347721293525 0.62542488784382
-84.36717663421419 -9.885220899622109 0.6196946501123999
-83.86648122392211 -9.842858933841047 0.6139770724539857
-83.36578581363004 -9.800261854627163 0.6082723729103736
-82.86509040333797 -9.75742969265725 0.6025807695233598
-82.36439499304589 -9.714362478608162 0.596902480334744
-81.86369958275382 -9.671060243156706 0.5912377233863171
-81.36300417246176 -9.627523016979683 0.5855867167198734
-80.86230876216968 -9.583750830753946 0.5799496783772127
-80.36161335187761 -9.539743715156309 0.5743268264001382
-79.86091794158554 -9.495501700863581 0.5687183788304355
-79.36022253129346 -9.451024818552586 0.5631245537099026
-78.85952712100139 -9.406313098900153 0.557545569080339
-78.35883171070932 -9.36136657258309 0.5519816429835358
-77.85813630041724 -9.316185270278236 0.5464329934612944
-77.35744089012518 -9.270769222662405 0.5408998385554145
-76.85674547983311 -9.2251184604124 0.5353823963076745
-76.35605006954103 -9.179233014205064 0.5298808847598901
-75.85535465924896 -9.13311291471722 0.5243955219538488
-75.35465924895689 -9.08675819262567 0.51892652593135
-74.85396383866481 -9.04016887860725 0.5134741147341795
-74.35326842837274 -8.99334500333877 0.5080385064041475
-73.85257301808066 -8.946286597497053 0.5026199189830414
-73.3518776077886 -8.898993691758943 0.49721857051266444
-72.85118219749653 -8.851466316801233 0.4918346790348021
-72.35048678720445 -8.803704503300747 0.48646846259126125
-71.84979137691238 -8.755708281934307 0.4811201392238292
-71.34909596662031 -8.707477683378752 0.4757899269743074
-70.84840055632823 -8.659012738310881 0.47047804388449205
-70.34770514603616 -8.61031347740754 0.46518470799617934
-69.8470097357441 -8.561379931345517 0.45991013735115654
-69.34631432545201 -8.512212130801647 0.4546545499912305
-68.84561891515995 -8.46281010645276 0.4494181639581974
-68.34492350486788 -8.413173888975674 0.4442011972938445
-67.8442280945758 -8.363303509047203 0.4390038680399751
-67.34353268428373 -8.313198997344177 0.43382639423838715
-66.84283727399166 -8.262860384543405 0.42866899393086794
-66.34214186369958 -8.212287701321717 0.42353188515922074
-65.84144645340751 -8.161480978355929 0.41841528596523997
-65.34075104311543 -8.11044024632287 0.41331941439071823
-64.84005563282336 -8.059165535899343 0.40824448847745526
-64.3393602225313 -8.007656877762205 0.4031907262672472
-63.838664812239216 -7.955914302588229 0.3981583458018885
-63.33796940194715 -7.903937841054268 0.3931475651231789
-62.83727399165508 -7.851727523837144 0.38815860227290916
-62.336578581363 -7.799283381613665 0.3831916752928773
-61.83588317107093 -7.746605445060648 0.37824700222487945
-61.335187760778865 -7.693693744854936 0.3733248011107207
-60.834492350486784 -7.6405483116733235 0.36842528999217766
-60.333796940194716 -7.587169176192648 0.3635486869110625
-59.83310152990265 -7.533556369089733 0.35869520990916787
-59.33240611961057 -7.479709921041393 0.35386507702828457
-58.8317107093185 -7.4256298627244375 0.3490585063102141
-58.33101529902643 -7.371316224815703 0.3442757157967474
-57.83031988873435 -7.31676903799202 0.3395169235296894
-57.329624478442284 -7.261988332930183 0.3347823475508345
-56.82892906815022 -7.206974140307028 0.33007220590196656
-56.328233657858135 -7.151726490799379 0.3253867166248941
-55.82753824756607 -7.096245415084044 0.320726097761408
-55.326842837273986 -7.040530943837861 0.3160905673533079
-54.82614742698192 -6.984583107737644 0.3114803434423901
-54.32545201668985 -6.9284019374601895 0.3068956440704383
-53.82475660639777 -6.871987463682369 0.3023366872792664
-53.3240611961057 -6.815339717080962 0.2978036911106599
-52.823365785813635 -6.7584587283328075 0.2932968736064186
-52.322670375521554 -6.701344528114713 0.2888164528083404
-51.82197496522949 -6.643997147103522 0.2843626467582144
-51.321279554937405 -6.58641661597603 0.27993567349784026
-50.82058414464535 -6.528602965409074 0.27553575106901956
-50.31988873435327 -6.470556226079469 0.27116309751354134
-49.81919332406119 -6.412276428664046 0.2668179308732053
-49.318497913769136 -6.353763603839613 0.26250046918980413
-48.817802503477054 -6.295017782283 0.2582109305051375
-48.31710709318497 -6.236038994671008 0.2539495328609998
-47.81641168289292 -6.176827271680483 0.24971649429918547
-47.31571627260084 -6.117382643988239 0.2455120328614942
-46.81502086230876 -6.057705142271092 0.2413363665897204
-46.3143254520167 -5.997794797205866 0.23718971352565849
-45.81363004172462 -5.937651639469389 0.23307229171110816
-45.31293463143254 -5.8772756997384645 0.22898431918786383
-44.81223922114049 -5.816667008689929 0.2249260139977199
-44.311543810848406 -5.755825597000597 0.2208975941824725
-43.810848400556324 -5.694751495347279 0.21689927778391965
-43.31015299026427 -5.633444734406832 0.21293128284386104
-42.80945757997219 -5.57190534485603 0.20899382740408218
-42.30876216968011 -5.510133357371731 0.2050871295063899
-41.808066759388026 -5.4481288026307295 0.20121140719257152
-41.30737134909597 -5.3858917113098626 0.19736687850443208
-40.80667593880389 -5.323422114085946 0.19355376148376063
-40.30598052851181 -5.260720041635802 0.18977227417236048
-39.80528511821976 -5.197785524636262 0.18602263461202068
-39.304589707927676 -5.134618593764126 0.18230506084453563
-38.803894297635594 -5.071219279696225 0.17861977091171038
-38.30319888734354 -5.007587613109396 0.17496698285533402
-37.80250347705146 -4.943723624680426 0.17134691471720626
-37.30180806675938 -4.879627345086152 0.16775978453911616
-36.801112656467325 -4.815298805003411 0.16420581036287413
-36.30041724617524 -4.750738035108998 0.1606852102302639
-35.79972183588316 -4.685945066079742 0.15719820218307984
-35.29902642559111 -4.620919928592495 0.15374500426312881
-34.79833101529903 -4.555662653324023 0.1503258345121981
-34.297635605006946 -4.490173270951185 0.14694091097208922
-33.79694019471489 -4.424451812150802 0.14359045168459833
-33.29624478442281 -4.35849830759967 0.1402746746915145
-32.79554937413073 -4.292312787974626 0.1369937980346428
-32.294853963838676 -4.225895283952506 0.13374803975577226
-31.794158553546595 -4.159245826210099 0.13053761789670443
-31.293463143254513 -4.0923644454242405 0.12736275049923013
-30.79276773296246 -4.025251172271768 0.12422365560514909
-30.29207232267038 -3.9579060374294768 0.12112055125625926
-29.791376912378297 -3.8903290715741887 0.11805365549435148
-29.290681502086244 -3.8225203053827626 0.11502318636122372
-28.789986091794162 -3.7544797695319714 0.11202936189867391
-28.28929068150208 -3.6862074946986523 0.10907240014849823
-27.788595271210028 -3.6177035115596494 0.10615251915249285
-27.287899860917946 -3.548967850791743 0.10326993695244507
-26.787204450625865 -3.4800005430717773 0.10042487159016172
-26.28650904033381 -3.410801619076582 0.09761754110744253
-25.78581363004173 -3.3413711094829663 0.09484816354606945
-25.28511821974965 -3.2717090449677455 0.09211695694784933
-24.784422809457595 -3.201815456207764 0.089424139354573
-24.283727399165514 -3.1316903738798016 0.08676992880803486
-23.783031988873432 -3.0613338286607172 0.08415454335003997
-23.28233657858135 -2.990745851227312 0.08157820102237384
-22.781641168289298 -2.9199264722564164 0.07904111986684154
-22.280945757997216 -2.848875722424853 0.07654351792523567
-21.780250347705135 -2.77759363240943 0.07408561323934709
-21.27955493741308 -2.7060802328869924 0.07166762385098085
-20.778859527121 -2.63433555453432 0.0692897678019278
-20.27816411682892 -2.562359628028285 0.06695226313398767
-19.777468706536865 -2.4901524840456615 0.06465532788894951
-19.276773296244784 -2.4177141532633 0.06239918010861839
-18.776077885952702 -2.3450446663580093 0.0601840378347816
-18.27538247566065 -2.2721440540066267 0.05801011910923887
-17.774687065368568 -2.1990123468859464 0.05587764197379169
-17.273991655076486 -2.1256495756728055 0.053786824470229144
-16.773296244784433 -2.052055771044027 0.0517378846403474
-16.27260083449235 -1.9782309636764195 0.04973104052594618
-15.77190542420027 -1.9041751842468342 0.04776651016882166
-15.271210013908217 -1.8298884634320585 0.04584451161077002
-14.770514603616135 -1.7553708319089152 0.04396526289357855
-14.269819193324054 -1.6806223203542414 0.042128982059059406
-13.769123783032 -1.605642959444853 0.04033588714899278
-13.268428372739919 -1.5304327798575583 0.0385861962051855
-12.767732962447838 -1.454991812269209 0.03688012726943196
-12.267037552155784 -1.379320087356592 0.035217898383519464
-11.766342141863703 -1.303417635796552 0.033599727589254835
-11.265646731571621 -1.22728448826589 0.032025832928432474
-10.764951321279568 -1.1509206754414505 0.030496432442845
-10.264255910987487 -1.074326228000035 0.029011744174286813
-9.763560500695405 -0.9975011766184805 0.027571986164559414
-9.262865090403352 -0.9204455519735957 0.02617737645545365
-8.76216968011127 -0.8431593847421892 0.02482813308877102
