Polar data for a18sm at Re = 162857.14285714287
Alpha (deg) Cl Cd
-180.0 -7.4690266715612434 1.322532236652105
-179.49930458970792 -7.49062106856973 1.319253198828185
-178.99860917941587 -7.512085039068577 1.3159522185884491
-178.49791376912378 -7.5334176344218395 1.3126294631584268
-177.9972183588317 -7.554617905993565 1.3092850997636456
-177.49652294853965 -7.575684905147808 1.3059192956296342
-176.99582753824757 -7.5966176832486205 1.3025322179819219
-176.4951321279555 -7.617415291660052 1.2991240340460373
-175.99443671766343 -7.638076781746154 1.2956949110475098
-175.49374130737135 -7.6586012048709815 1.292245016211867
-174.99304589707927 -7.678987612398583 1.2887745167646403
-174.49235048678722 -7.699235055693009 1.2852835799313562
-173.99165507649514 -7.719342586118314 1.2817723729375443
-173.49095966620305 -7.739309255038554 1.278241063008733
-172.990264255911 -7.7591341138177725 1.2746898173704502
-172.48956884561892 -7.778816213820024 1.2711188032482286
-171.98887343532684 -7.798354606409358 1.2675281878675941
-171.48817802503476 -7.817748342949832 1.2639181384540745
-170.9874826147427 -7.83699647480549 1.2602888222332018
-170.48678720445062 -7.856098053340395 1.256640406430502
-169.98609179415854 -7.8750521299185845 1.252973058271505
-169.4853963838665 -7.893857755904122 1.2492869449817408
-168.9847009735744 -7.9125139826610535 1.2455822337867366
-168.48400556328232 -7.931019861553429 1.241859091912022
-167.98331015299027 -7.949374443945301 1.2381176865831265
-167.4826147426982 -7.967576781200725 1.2343581850255776
-166.9819193324061 -7.985625924683754 1.2305807544649048
-166.48122392211405 -8.003520925758432 1.2267855621266375
-165.98052851182197 -8.021260835788814 1.2229727752363033
-165.4798331015299 -8.038844706138953 1.2191425610194309
-164.97913769123784 -8.056271588172905 1.2152950867015513
-164.47844228094576 -8.07354053325471 1.2114305195081922
-163.97774687065368 -8.090650592748432 1.2075490266648805
-163.47705146036162 -8.107600818018112 1.2036507753971482
-162.97635605006954 -8.124390260427809 1.199735932930522
-162.47566063977746 -8.141017971341574 1.1958046664905313
-161.9749652294854 -8.157483002123453 1.1918571433027065
-161.47426981919332 -8.173784404137503 1.1878935305925726
-160.97357440890124 -8.189921228747776 1.1839139955856626
-160.4728789986092 -8.20589252731832 1.1799187055075049
-159.9721835883171 -8.22169735121319 1.1759078275836254
-159.47148817802503 -8.237334751796437 1.1718815290395546
-158.97079276773297 -8.252803780432103 1.1678399771008234
-158.4700973574409 -8.268103488484261 1.163783338992957
-157.9694019471488 -8.283232927316947 1.1597117819414848
-157.46870653685676 -8.298191148294213 1.1556254731719389
-156.96801112656468 -8.312977202780113 1.151524579909846
-156.4673157162726 -8.327590142138702 1.1474092693807336
-155.96662030598054 -8.342029017734024 1.1432797088101332
-155.46592489568846 -8.356292880930141 1.1391360654235723
-154.96522948539638 -8.370380783091097 1.1349785064465776
-154.46453407510432 -8.384291775580943 1.130807199104683
-153.96383866481224 -8.398024909763734 1.1266223106234137
-153.46314325452016 -8.411579237003524 1.1224240082282997
-152.9624478442281 -8.424953808664359 1.1182124591448697
-152.46175243393603 -8.438147676110296 1.1139878305986504
-151.96105702364395 -8.451159890705382 1.1097502898151739
-151.4603616133519 -8.463989503813675 1.1055000040199687
-150.9596662030598 -8.476635566799215 1.1012371404385617
-150.45897079276773 -8.489097131026066 1.096961866296483
-149.95827538247568 -8.501373247858272 1.0926743488192623
-149.4575799721836 -8.51346296865989 1.0883747552324243
-148.9568845618915 -8.525365344794968 1.084063252761503
-148.45618915159943 -8.537079427627555 1.079740008632027
-147.95549374130738 -8.548604268521709 1.0754051900695203
-147.4547983310153 -8.559938918841478 1.071058964299515
-146.95410292072324 -8.571082429950916 1.0667014985475414
-146.45340751043116 -8.582033853214073 1.0623329600391263
-145.95271210013908 -8.592792239995003 1.0579535159997973
-145.452016689847 -8.603356641657749 1.0535633336550874
-144.95132127955495 -8.613726109566372 1.0491625802305216
-144.45062586926286 -8.623899695084924 1.0447514229516284
-143.94993045897078 -8.633876449577453 1.0403300290439408
-143.44923504867873 -8.64365542440801 1.0358985657329847
-142.94853963838665 -8.653235670940642 1.0314572002442894
-142.44784422809457 -8.662616240539414 1.0270060998033836
-141.9471488178025 -8.671796184568366 1.0225454316357958
-141.44645340751043 -8.68077455439156 1.0180753629670545
-140.94575799721835 -8.689550401373033 1.0135960610226908
-140.44506258692627 -8.69812277687685 1.0091076930282326
-139.94436717663422 -8.706490732267056 1.0046104262092082
-139.44367176634213 -8.714653318907702 1.0001044277911462
-138.94297635605005 -8.722609588162841 0.9955898649995769
-138.442280945758 -8.73035859139653 0.9910669050600263
-137.94158553546592 -8.737899379972818 0.9865357151980245
-137.44089012517384 -8.74523100525575 0.9819964626391029
-136.94019471488178 -8.752352518609383 0.9774493146087873
-136.4394993045897 -8.75926297139777 0.9728944383326088
-135.93880389429762 -8.765961414984961 0.9683320010360943
-135.43810848400557 -8.772446900735005 0.9637621699447732
-134.9374130737135 -8.778718480011957 0.9591851122841748
-134.4367176634214 -8.784775204179871 0.954600995279826
-133.93602225312935 -8.790616124602796 0.9500099861572588
-133.43532684283727 -8.796240292644779 0.9454122521420001
-132.9346314325452 -8.801646759669877 0.9408079604595809
-132.43393602225314 -8.806834577042139 0.9361972783355255
-131.93324061196105 -8.811802796125622 0.9315803729953667
-131.43254520166897 -8.816550468284374 0.9269574116646322
-130.93184979137692 -8.82107664488244 0.9223285615688532
-130.43115438108484 -8.825380377283885 0.917693989933553
-129.93045897079276 -8.829460716852745 0.9130538639842662
-129.4297635605007 -8.833316714953085 0.9084083509465171
-128.92906815020862 -8.836947422948958 0.9037576180458375
-128.42837273991654 -8.840351892204401 0.8991018325077571
-127.92767732962449 -8.843529174083478 0.8944411615578016
-127.4269819193324 -8.846478319950236 0.8897757724215005
-126.92628650904032 -8.84919838116873 0.8851058323243823
-126.42559109874827 -8.851688409103007 0.88043150849198
-125.92489568845619 -8.853947455117122 0.8757529681498168
-125.42420027816411 -8.855974570575123 0.8710703785234275
-124.92350486787205 -8.857768806841065 0.8663839068383352
-124.42280945757997 -8.859329215279008 0.8616937203200694
-123.92211404728789 -8.86065484725298 0.8569999861941657
-123.42141863699584 -8.861744754127056 0.8523028716861438
-122.92072322670376 -8.862597987265275 0.8476025440215376
-122.42002781641168 -8.863213598031694 0.8428991704258755
-121.91933240611961 -8.863590637790363 0.8381929181246861
-121.41863699582754 -8.863728157905333 0.8334839543434989
-120.91794158553546 -8.863625209740658 0.8287724463078405
-120.41724617524339 -8.863280844660387 0.8240585612432405
-119.91655076495132 -8.862694114028576 0.8193424663752291
-119.41585535465924 -8.861864069209268 0.8146243289293349
-118.91515994436718 -8.86078976156652 0.8099043161310873
-118.41446453407511 -8.85947024246439 0.8051825952060121
-117.91376912378303 -8.857904563266917 0.8004593333796397
-117.41307371349096 -8.856091775338163 0.7957346978775031
-116.91237830319889 -8.854030930042175 0.7910088559251245
-116.41168289290681 -8.851721078743005 0.7862819747480361
-115.91098748261474 -8.8491612728047 0.7815542215717672
-115.41029207232268 -8.846350563591319 0.7768257636218456
-114.9095966620306 -8.843288002466915 0.7720967681237998
-114.40890125173853 -8.839972640795533 0.7673674023031609
-113.90820584144646 -8.83640352994123 0.7626378333854549
-113.40751043115438 -8.832579721268056 0.7579082285962102
-112.90681502086231 -8.828500266140058 0.7531787551609599
-112.40611961057024 -8.824164215921291 0.748449580305228
-111.90542420027816 -8.819570621975807 0.7437208712545493
-111.4047287899861 -8.814718535667662 0.7389927952344462
-110.90403337969401 -8.809607008360901 0.7342655194704497
-110.40333796940195 -8.804235091419578 0.7295392111880921
-109.90264255910988 -8.798601836207746 0.7248140376128964
-109.4019471488178 -8.79270629408945 0.7200901659703958
-108.90125173852573 -8.786547516428755 0.7153677634861186
-108.40055632823366 -8.780124554589703 0.7106469973855918
-107.89986091794158 -8.773436459936345 0.7059280348943429
-107.39916550764951 -8.766482283832737 0.7012110432379084
-106.89847009735745 -8.759261077642929 0.696496189641808
-106.39777468706536 -8.751771892730972 0.6917836413315757
-105.8970792767733 -8.744013780460916 0.6870735655327398
-105.39638386648123 -8.73598579219681 0.6823661294708272
-104.89568845618915 -8.727686979302721 0.6776615003713673
-104.39499304589708 -8.719116393142682 0.6729598454598913
-103.89429763560501 -8.710273085080757 0.6682613319619259
-103.39360222531293 -8.701156106480985 0.6635661271030016
-102.89290681502086 -8.691764508707436 0.6588743981086431
-102.3922114047288 -8.682097343124148 0.6541863122043854
-101.89151599443672 -8.672153661095182 0.6495020366157498
-101.39082058414465 -8.661932513984567 0.6448217385682773
-100.89012517385257 -8.651432953156387 0.6401455852874813
-100.3894297635605 -8.640654029974678 0.6354737439989011
-99.88873435326843 -8.629594795803484 0.6308063819280634
-99.38803894297635 -8.618254302006866 0.6261436663004967
-98.88734353268428 -8.606631599948876 0.6214857643417295
-98.38664812239222 -8.594725740993567 0.6168328432772896
-97.88595271210013 -8.582535776504985 0.6121850703327072
-97.38525730180807 -8.57006075784718 0.6075426127335108
-96.884561891516 -8.557299736384211 0.6029056377052309
-96.38386648122392 -8.544251763480128 0.5982743124733922
-95.88317107093185 -8.530915890498974 0.5936488042635315
-95.38247566063978 -8.517291168804812 0.5890292803011674
-94.8817802503477 -8.503376649761694 0.5844159078118347
-94.38108484005564 -8.489171384733666 0.5798088540210611
-93.88038942976357 -8.474674425084771 0.5752082861543759
-93.37969401947149 -8.459884822179085 0.5706143714373069
-92.87899860917942 -8.444801627380633 0.5660272770953869
-92.37830319888734 -8.429423892053489 0.5614471703541384
-91.87760778859527 -8.413750667561683 0.5568742184390942
-91.3769123783032 -8.397781005269282 0.552308588575783
-90.87621696801112 -8.381513956540338 0.5477504479897306
-90.37552155771905 -8.364948572738891 0.54319996390647
-89.87482614742699 -8.348083905229 0.5386573035515296
-89.3741307371349 -8.330919005374724 0.5341226341504355
-88.87343532684284 -8.313452924540103 0.5295961229287178
-88.37273991655077 -8.295684714089191 0.5250779371119043
-87.87204450625869 -8.277613425386045 0.5205682439255279
-87.37134909596662 -8.259238109794717 0.5160672105951101
-86.87065368567455 -8.240557818679246 0.5115750043461909
-86.36995827538247 -8.221571603403698 0.5070917924042881
-85.8692628650904 -8.202278515332114 0.5026177419949358
-85.36856745479834 -8.182677605828555 0.49815302034366415
-84.86787204450626 -8.162767926257064 0.4936977946759964
-84.36717663421419 -8.142548527981699 0.4892522322174637
-83.86648122392211 -8.12201846236651 0.48481650019360356
-83.36578581363004 -8.101176780775553 0.480390765829932
-82.86509040333797 -8.080022534572866 0.47597519635198293
-82.36439499304589 -8.058554775122515 0.47156995898528664
-81.86369958275382 -8.036772553788545 0.4671752209553708
-81.36300417246176 -8.01467492193501 0.462791149487763
-80.86230876216968 -7.992260930925966 0.4584179118079945
-80.36161335187761 -7.969529632125454 0.45405567514159384
-79.86091794158554 -7.946480076897524 0.4497046067140895
-79.36022253129346 -7.923111316606246 0.4453648737510074
-78.85952712100139 -7.8994224026156505 0.44103664347787963
-78.35883171070932 -7.875412386289808 0.4367200831202338
-77.85813630041724 -7.85108031899275 0.43241535990360114
-77.35744089012518 -7.826425252088546 0.4281226410535093
-76.85674547983311 -7.801446236941242 0.4238420937954841
-76.35605006954103 -7.776142324914886 0.4195738853550568
-75.85535465924896 -7.750512567373537 0.415318182957755
-75.35465924895689 -7.724556015681234 0.41107515382911
-74.85396383866481 -7.698271721202039 0.40684496519465285
-74.35326842837274 -7.671658735300003 0.402627784279906
-73.85257301808066 -7.644716109339175 0.39842377831039877
-73.3518776077886 -7.617442894683604 0.39423311451166776
-72.85118219749653 -7.589838142697353 0.39005596010922994
-72.35048678720445 -7.561900904744462 0.38589248232862716
-71.84979137691238 -7.533630232188987 0.3817428483953782
-71.34909596662031 -7.505025176394977 0.377607225535016
-70.84840055632823 -7.47608478872648 0.37348578097307183
-70.34770514603616 -7.4468081205475585 0.36937868193506973
-69.8470097357441 -7.417194223222262 0.36528609564653736
-69.34631432545201 -7.387242148114634 0.36120818933300947
-68.84561891515995 -7.356950946588739 0.3571451302200137
-68.34492350486788 -7.326319670008614 0.35309708553307595
-67.8442280945758 -7.295347369738312 0.3490642224977256
-67.34353268428373 -7.264033097141905 0.3450467083394957
-66.84283727399166 -7.232375903583424 0.3410447102839067
-66.34214186369958 -7.200374840426921 0.3370583955564934
-65.84144645340751 -7.168028959036453 0.3330879313827888
-65.34075104311543 -7.135337310776077 0.32913348498831163
-64.84005563282336 -7.102298947009839 0.32519522359859665
-64.3393602225313 -7.0689129191018 0.3212733144391733
-63.838664812239216 -7.035178278415991 0.3173679247355692
-63.33796940194715 -7.00109407631647 0.313479221713312
-62.83727399165508 -6.96665936416731 0.3096073725979329
-62.336578581363 -6.931873193332532 0.30575254461495605
-61.83588317107093 -6.896734615176209 0.30191490498991436
-61.335187760778865 -6.861242681062386 0.2980946209483408
-60.834492350486784 -6.825396442355119 0.294291859715756
-60.333796940194716 -6.789194950418446 0.2905067885176911
-59.83310152990265 -6.752637256616428 0.286739574579679
-59.33240611961057 -6.715722412313129 0.28299038512724395
-58.8317107093185 -6.6784494688725715 0.27925938738591527
-58.33101529902643 -6.6408174776588424 0.2755467485812224
-57.83031988873435 -6.602825490035967 0.27185263593869835
-57.329624478442284 -6.5644725573679885 0.2681772166838672
-56.82892906815022 -6.5257577310190005 0.2645206580422548
-56.328233657858135 -6.4866800623530185 0.2608831272394012
-55.82753824756607 -6.447238602734103 0.2572647915008235
-55.326842837273986 -6.407432403526313 0.2536658180520599
-54.82614742698192 -6.367260516093683 0.250086374118631
-54.32545201668985 -6.326721991800287 0.24652662692606794
-53.82475660639777 -6.285815882010157 0.242986743699902
-53.3240611961057 -6.244541238087365 0.23946689166566257
-52.823365785813635 -6.202897111395947 0.2359672380488755
-52.322670375521554 -6.1608825532999525 0.2324879500750738
-51.82197496522949 -6.118496615163448 0.229029194969778
-51.321279554937405 -6.075738348350471 0.22559113995852462
-50.82058414464535 -6.032606804225082 0.22217395226684308
-50.31988873435327 -5.98910103415133 0.21877779912025927
-49.81919332406119 -5.945220089493246 0.21540284774430082
-49.318497913769136 -5.900963021614931 0.21204926536449895
-48.817802503477054 -5.856328881880396 0.20871721920638128
-48.31710709318497 -5.8113167216536965 0.20540687649547548
-47.81641168289292 -5.765925592298904 0.20211840445731274
-47.31571627260084 -5.7201545451800495 0.19885197031742427
-46.81502086230876 -5.6740026316611925 0.19560774130133238
-46.3143254520167 -5.627468903106392 0.19238588463457004
-45.81363004172462 -5.580552410879683 0.1891865675426649
-45.31293463143254 -5.533252206345132 0.18600995725114997
-44.81223922114049 -5.485567340866792 0.18285622098554574
-44.311543810848406 -5.437496865808701 0.179725525971387
-43.810848400556324 -5.389039832534914 0.1766180394341996
-43.31015299026427 -5.34019529240949 0.1735339285995183
-42.80945757997219 -5.2909622967964935 0.17047336069286365
-42.30876216968011 -5.2413398970599285 0.1674365029397686
-41.808066759388026 -5.191327144563898 0.16442352256576262
-41.30737134909597 -5.140923090672439 0.16143458679637865
-40.80667593880389 -5.090126786749581 0.15846986285713724
-40.30598052851181 -5.038937284159395 0.15552951797357137
-39.80528511821976 -4.987353634265942 0.15261371937120868
-39.304589707927676 -4.935374888433248 0.14972263427558039
-38.803894297635594 -4.883000098025388 0.14685642991221057
-38.30319888734354 -4.830228314406407 0.14401527350663398
-37.80250347705146 -4.777058588940349 0.14119933228437473
-37.30180806675938 -4.72348997299126 0.13840877347096223
-36.801112656467325 -4.669521517923219 0.13564376429192768
-36.30041724617524 -4.615152275100247 0.1329044719728005
-35.79972183588316 -4.560381295886417 0.13019106373910835
-35.29902642559111 -4.505207631645781 0.12750370681637888
-34.79833101529903 -4.449630333742368 0.12484256843014149
-34.297635605006946 -4.39364845354025 0.12220781580592385
-33.79694019471489 -4.33726104240348 0.11959961616925893
-33.29624478442281 -4.280467151696081 0.11701813674567083
-32.79554937413073 -4.2232658327821415 0.11446354476069073
-32.294853963838676 -4.165656137025698 0.11193600743985163
-31.794158553546595 -4.1076371157908 0.10943569200867229
-31.293463143254513 -4.049207820441499 0.10696276569268745
-30.79276773296246 -3.9903673023418533 0.1045173957174301
-30.29207232267038 -3.931114612855908 0.10209974930842078
-29.791376912378297 -3.8714488033477106 0.09970999369118891
-29.290681502086244 -3.811368925181339 0.09734829609127635
-28.789986091794162 -3.750874029720809 0.09501482373419476
-28.28929068150208 -3.6899631683301766 0.092709743845486
-27.788595271210028 -3.6286353923735253 0.09043322365067061
-27.287899860917946 -3.566889753214887 0.08818543037527801
-26.787204450625865 -3.504725302218303 0.08596653124484119
-26.28650904033381 -3.442141090747835 0.08377669348489311
-25.78581363004173 -3.3791361701675293 0.081616084320949
-25.28511821974965 -3.315709591841441 0.07948487097854892
-24.784422809457595 -3.2518604071336408 0.07738322068321521
-24.283727399165514 -3.1875876674081582 0.07531130066047906
-23.783031988873432 -3.1228904240290283 0.07326927813587344
-23.28233657858135 -3.0577677283603566 0.07125732033492424
-22.781641168289298 -2.992218631766137 0.06927559448315732
-22.280945757997216 -2.9262421856104557 0.06732426780610565
-21.780250347705135 -2.8598374412573535 0.06540350752929333
-21.27955493741308 -2.7930034500708882 0.06351348087825334
-20.778859527121 -2.7257392634151034 0.061654355078515105
-20.27816411682892 -2.658043932654048 0.05982629735560982
-19.777468706536865 -2.589916509151799 0.058029474935054476
-19.276773296244784 -2.5213560442723657 0.056264055042389155
-18.776077885952702 -2.4523615893798385 0.05453020490313795
-18.27538247566065 -2.382932195838247 0.052828091742833844
-17.774687065368568 -2.313066915011641 0.0511578827870027
-17.273991655076486 -2.242764798264091 0.04951974526117395
-16.773296244784433 -2.172024896959647 0.04791384639087523
-16.27260083449235 -2.100846262462331 0.0463403534016342
-15.77190542420027 -2.029227946136221 0.04479943351898383
-15.271210013908217 -1.9571689993453725 0.043291253968451765
-14.770514603616135 -1.8846684734538228 0.04181598197556388
-14.269819193324054 -1.81172541982562 0.04037378476585493
-13.769123783032 -1.7383388898248433 0.03896482956484723
-13.268428372739919 -1.6645079348155076 0.03758928359806843
-12.767732962447838 -1.5902316061616824 0.03624731409105683
-12.267037552155784 -1.5155089552274323 0.03493908826933298
-11.766342141863703 -1.440339033376795 0.033664773358428074
-11.265646731571621 -1.3647208919738092 0.03242453658387509
-10.764951321279568 -1.2886535823825551 0.031218545171199902
-10.264255910987487 -1.212136155967055 0.0300469663459266
-9.763560500695405 -1.135167664091378 0.028909967333589942
-9.262865090403352 -1.0577471581195819 0.027807715359717572
-8.76216968011127 -0.9798736894157103 0.026740377649835362
-8.261474269819189 -0.9015463093438041 0.02570812142947984
-7.760778859527136 -0.8227640692679432 0.024711113924166223
