Polar data for a18sm at Re = 157142.85714285716
Alpha (deg) Cl Cd
-180.0 -6.800405110986605 0.9545287430125607
-179.49930458970792 -6.824977600526489 0.952240883899585
-178.99860917941587 -6.849430041681432 0.949937343554467
-178.49791376912378 -6.873761346322593 0.9476182382148864
-177.9972183588317 -6.897970426321124 0.9452836841185245
-177.49652294853965 -6.922056193548181 0.9429337975030597
-176.99582753824757 -6.946017559874913 0.9405686946061717
-176.4951321279555 -6.969853437172476 0.9381884916655406
-175.99443671766343 -6.993562737312021 0.9357933049188466
-175.49374130737135 -7.0171443721647035 0.9333832506037686
-174.99304589707927 -7.040597253601674 0.9309584449579879
-174.49235048678722 -7.06392029349409 0.9285190042191825
-173.99165507649514 -7.087112403713099 0.9260650446250321
-173.49095966620305 -7.110172496129866 0.9235966824132179
-172.990264255911 -7.133099482615534 0.9211140338214184
-172.48956884561892 -7.155892275041253 0.9186172150873141
-171.98887343532684 -7.178549785278187 0.9161063424485852
-171.48817802503476 -7.201070925197484 0.91358153214291
-170.9874826147427 -7.223454606670294 0.9110429004079702
-170.48678720445062 -7.245699741567779 0.908490563481443
-169.98609179415854 -7.267805241761084 0.9059246376010114
-169.4853963838665 -7.2897700191213675 0.9033452390043518
-168.9847009735744 -7.31159298551978 0.9007524839291451
-168.48400556328232 -7.333273052827475 0.8981464886130733
-167.98331015299027 -7.354809132915606 0.8955273692938134
-167.4826147426982 -7.376200137655329 0.892895242209046
-166.9819193324061 -7.397444978917794 0.8902502235964512
-166.48122392211405 -7.418542568574156 0.8875924296937093
-165.98052851182197 -7.439491818495566 0.884921976738498
-165.4798331015299 -7.460291640553181 0.8822389809684991
-164.97913769123784 -7.480940946618154 0.8795435586213914
-164.47844228094576 -7.501438648561634 0.8768358259348555
-163.97774687065368 -7.521783658254777 0.87411589914657
-163.47705146036162 -7.541974887568743 0.8713838944942142
-162.97635605006954 -7.562011248374671 0.8686399282154703
-162.47566063977746 -7.581891652543722 0.8658841165480166
-161.9749652294854 -7.601615011947055 0.8631165757295319
-161.47426981919332 -7.621180238455817 0.8603374219976977
-160.97357440890124 -7.640586243941159 0.8575467715901924
-160.4728789986092 -7.65983194027424 0.8547447407446965
-159.9721835883171 -7.678916239326209 0.8519314456988895
-159.47148817802503 -7.697838052968222 0.8491070026904525
-158.97079276773297 -7.7165962930714285 0.8462715279570642
-158.4700973574409 -7.735189871506985 0.8434251377364027
-157.9694019471488 -7.753617700146049 0.8405679482661489
-157.46870653685676 -7.7718786908597695 0.837700075783984
-156.96801112656468 -7.789971755519294 0.8348216365275866
-156.4673157162726 -7.807895805995787 0.8319327467346366
-155.96662030598054 -7.825649754160392 0.8290335226428139
-155.46592489568846 -7.843232511884268 0.8261240804897986
-154.96522948539638 -7.860642991038573 0.8232045365132677
-154.46453407510432 -7.877880103494447 0.8202750069509049
-153.96383866481224 -7.894942761123052 0.8173356080403874
-153.46314325452016 -7.911829875795537 0.8143864560193977
-152.9624478442281 -7.928540359383065 0.8114276671256123
-152.46175243393603 -7.945073123756779 0.8084593575967111
-151.96105702364395 -7.96142708078784 0.8054816436703766
-151.4603616133519 -7.977601142347388 0.8024946415842878
-150.9596662030598 -7.993594220306595 0.7994984675761231
-150.45897079276773 -8.0094052265366 0.7964932378835622
-149.95827538247568 -8.02503307290856 0.7934790687442864
-149.4575799721836 -8.040476671293636 0.7904560763959735
-148.9568845618915 -8.05573493356297 0.7874243770763046
-148.45618915159943 -8.07080677158772 0.7843840870229607
-147.95549374130738 -8.085691097239039 0.7813353224736185
-147.4547983310153 -8.100386822388081 0.7782781996659601
-146.95410292072324 -8.114892858906 0.7752128348376651
-146.45340751043116 -8.129208118663946 0.7721393442264112
-145.95271210013908 -8.143331513533084 0.7690578440698795
-145.452016689847 -8.157261955384548 0.7659684506057515
-144.95132127955495 -8.170998356089505 0.7628712800717051
-144.45062586926286 -8.184539627519108 0.7597664487054191
-143.94993045897078 -8.197884681544508 0.7566540727445742
-143.44923504867873 -8.211032430036852 0.7535342684268512
-142.94853963838665 -8.223981784867295 0.7504071519899301
-142.44784422809457 -8.236731657907 0.7472728396714899
-141.9471488178025 -8.249280961027115 0.7441314477092084
-141.44645340751043 -8.261628606098792 0.7409830923407666
-140.94575799721835 -8.273773504993187 0.7378278898038456
-140.44506258692627 -8.285714569581447 0.7346659563361247
-139.94436717663422 -8.297450711734733 0.7314974081752835
-139.44367176634213 -8.308980843324193 0.7283223615590014
-138.94297635605005 -8.32030387622098 0.7251409327249579
-138.442280945758 -8.331418722296252 0.7219532379108325
-137.94158553546592 -8.342324293421157 0.7187593933543069
-137.44089012517384 -8.353019501466857 0.7155595152930597
-136.94019471488178 -8.363503258304494 0.7123537199647704
-136.4394993045897 -8.37377447580523 0.709142123607117
-135.93880389429762 -8.38383206584022 0.7059248424577828
-135.43810848400557 -8.393674940280608 0.7027019927544457
-134.9374130737135 -8.40330201099755 0.6994736907347857
-134.4367176634214 -8.412712189862201 0.6962400526364828
-133.93602225312935 -8.42190438874572 0.693001194697216
-133.43532684283727 -8.43087751951925 0.6897572331546652
-132.9346314325452 -8.43963049405395 0.6865082842465112
-132.43393602225314 -8.448162224220976 0.6832544642104322
-131.93324061196105 -8.456471621891477 0.679995889284109
-131.43254520166897 -8.4645575989366 0.6767326757052216
-130.93184979137692 -8.472419067227513 0.6734649397114506
-130.43115438108484 -8.480054938635362 0.6701927975404717
-129.93045897079276 -8.487464125031291 0.66691636542997
-129.4297635605007 -8.49464553828647 0.663635759617622
-128.92906815020862 -8.501598090272047 0.6603510963411076
-128.42837273991654 -8.508320692859165 0.6570624918381084
-127.92767732962449 -8.514812257918994 0.6537700623463018
-127.4269819193324 -8.521071697322672 0.6504739241033693
-126.92628650904032 -8.527097922941365 0.6471741933469884
-126.42559109874827 -8.532889846646217 0.6438709863148434
-125.92489568845619 -8.538446380308383 0.6405644192446088
-125.42420027816411 -8.543766435799022 0.6372546083739664
-124.92350486787205 -8.548848924989283 0.6339416699405988
-124.42280945757997 -8.55369275975032 0.6306257201821813
-123.92211404728789 -8.55829685195328 0.6273068753363976
-123.42141863699584 -8.562660113469331 0.6239852516409222
-122.92072322670376 -8.566781456169604 0.6206609653334404
-122.42002781641168 -8.57065979192528 0.6173341326516285
-121.91933240611961 -8.574294032607494 0.6140048698331692
-121.41863699582754 -8.577683090087401 0.6106732931157396
-120.91794158553546 -8.580825876236165 0.6073395187370197
-120.41724617524339 -8.583721302924928 0.6040036629346913
-119.91655076495132 -8.586368282024836 0.6006658419464307
-119.41585535465924 -8.588765725407061 0.5973261720099213
-118.91515994436718 -8.59091254494275 0.5939847693628405
-118.41446453407511 -8.592807652503051 0.5906417502428699
-117.91376912378303 -8.594449959959125 0.5872972308876877
-117.41307371349096 -8.595838379182116 0.5839513275349747
-116.91237830319889 -8.596971822043187 0.5806041564224099
-116.41168289290681 -8.597849200413485 0.5772558337876733
-115.91098748261474 -8.598469426164169 0.5739064758684439
-115.41029207232268 -8.59883141116638 0.5705561989024034
-114.9095966620306 -8.598934067291289 0.5672051191272282
-114.40890125173853 -8.598776306410027 0.5638533527806026
-113.90820584144646 -8.598357040393772 0.560501016100203
-113.40751043115438 -8.597675181113665 0.5571482253237111
-112.90681502086231 -8.596729640440863 0.5537950966888051
-112.40611961057024 -8.595519330246507 0.5504417464331658
-111.90542420027816 -8.594043162401764 0.5470882907944722
-111.4047287899861 -8.592300048777776 0.5437348460104042
-110.90403337969401 -8.59028890124571 0.5403815283186427
-110.40333796940195 -8.588008631676718 0.5370284539568658
-109.90264255910988 -8.58545815194195 0.5336757391627535
-109.4019471488178 -8.582636373912546 0.5303235001739864
-108.90125173852573 -8.579542209459671 0.5269718532282447
-108.40055632823366 -8.57617457045448 0.5236209145632064
-107.89986091794158 -8.572532368768137 0.5202708004165523
-107.39916550764951 -8.568614516271765 0.5169216270259632
-106.89847009735745 -8.564419924836546 0.5135735106291174
-106.39777468706536 -8.559947506333621 0.5102265674636938
-105.8970792767733 -8.55519617263414 0.506880913767375
-105.39638386648123 -8.550164835609266 0.5035366657778392
-104.89568845618915 -8.54485240713014 0.5001939397327645
-104.39499304589708 -8.53925779906793 0.4968528518698335
-103.89429763560501 -8.53337992329378 0.4935135184267244
-103.39360222531293 -8.527217691678835 0.490176055641118
-102.89290681502086 -8.520770016094275 0.4868405797506915
-102.3922114047288 -8.51403580841123 0.48350720699312755
-101.89151599443672 -8.507013980500862 0.48017605360610427
-101.39082058414465 -8.499703444234314 0.47684723582730426
-100.89012517385257 -8.492103111482756 0.473520869894403
-100.3894297635605 -8.484211894117337 0.4701970720450822
-99.88873435326843 -8.476028704009195 0.4668759585170227
-99.38803894297635 -8.467552453029501 0.4635576455479026
-98.88734353268428 -8.458782053049408 0.4602422493754027
-98.38664812239222 -8.449716415940053 0.4569298862372021
-97.88595271210013 -8.44035445357261 0.45362067237098247
-97.38525730180807 -8.43069507781821 0.4503147240144202
-96.884561891516 -8.420737200548022 0.44701215740519784
-96.38386648122392 -8.410479733633203 0.4437130887809927
-95.88317107093185 -8.399921588944892 0.44041763437948733
-95.38247566063978 -8.389061678354246 0.4371259104383608
-94.8817802503477 -8.377898913732434 0.43383803319528946
-94.38108484005564 -8.366432206950588 0.4305541188879586
-93.88038942976357 -8.354660469879878 0.42727428375404364
-93.37969401947149 -8.34258261439145 0.42399864403122545
-92.87899860917942 -8.330197552356449 0.4207273159571848
-92.37830319888734 -8.317504195646045 0.4174604157696017
-91.87760778859527 -8.304501456131366 0.4141980597061542
-91.3769123783032 -8.291188245683593 0.41094036400452494
-90.87621696801112 -8.27756347617387 0.4076874449023885
-90.37552155771905 -8.263626059473346 0.40443941863743016
-89.87482614742699 -8.24937490745318 0.40119640144732627
-89.3741307371349 -8.234808931984528 0.39795850956975765
-88.87343532684284 -8.219927044938519 0.3947258592424042
-88.37273991655077 -8.204728158186338 0.3914985667029468
-87.87204450625869 -8.189211183599124 0.38827674818906266
-87.37134909596662 -8.173375033048035 0.3850605199384317
-86.87065368567455 -8.157218618404212 0.38184999818873744
-86.36995827538247 -8.140740851538826 0.3786452991776553
-85.8692628650904 -8.12394064432301 0.3754465391428671
-85.36856745479834 -8.106816908627934 0.3722538343220553
-84.86787204450626 -8.089368556324754 0.36906730095289186
-84.36717663421419 -8.071594499284608 0.365887055273063
-83.86648122392211 -8.053493649378659 0.36271321352024766
-83.36578581363004 -8.035064918478053 0.3595458919321258
-82.86509040333797 -8.016307218453953 0.3563852067463721
-82.36439499304589 -7.997219461177505 0.35323127420067524
-81.86369958275382 -7.97780055851987 0.35008421053270633
-81.36300417246176 -7.958049422352196 0.3469441319801515
-80.86230876216968 -7.937964964545645 0.34381115478068447
-80.36161335187761 -7.917546096971347 0.34068539517199314
-79.86091794158554 -7.896791731500472 0.3375669693917486
-79.36022253129346 -7.875700780004183 0.3344559936776369
-78.85952712100139 -7.8542721543536045 0.3313525842673345
-78.35883171070932 -7.832504766419922 0.3282568573985222
-77.85813630041724 -7.81039752807427 0.325168929308879
-77.35744089012518 -7.787949351187803 0.32208891623608926
-76.85674547983311 -7.765159147631686 0.3190169344178223
-76.35605006954103 -7.742025829277057 0.3159531000917696
-75.85535465924896 -7.718548307995085 0.3128975294956021
-75.35465924895689 -7.6947254956569 0.30985033886700697
-74.85396383866481 -7.670556304133673 0.3068116444436578
-74.35326842837274 -7.646039645296555 0.30378156246323906
-73.85257301808066 -7.6211744310167076 0.3007602091634235
-73.3518776077886 -7.595959573165252 0.2977477007819017
-72.85118219749653 -7.570393983613395 0.2947441535563412
-72.35048678720445 -7.544476574232241 0.29174968372443344
-71.84979137691238 -7.51820625689296 0.2887644075238486
-71.34909596662031 -7.491581943466717 0.285788441192271
-70.84840055632823 -7.464602545824646 0.2828219009673806
-70.34770514603616 -7.437266975837903 0.2798649030868573
-69.8470097357441 -7.4095741453776744 0.2769175637883784
-69.34631432545201 -7.381522966315061 0.2739799993096256
-68.84561891515995 -7.353112350521248 0.27105232588828054
-68.34492350486788 -7.324341209867392 0.2681346597620188
-67.8442280945758 -7.295208456224631 0.265227117168522
-67.34353268428373 -7.26571300146412 0.2623298143454692
-66.84283727399166 -7.235853757457032 0.259442867530543
-66.34214186369958 -7.205629636074488 0.2565663929614189
-65.84144645340751 -7.175039549187667 0.2537005068757804
-65.34075104311543 -7.144082408667718 0.2508453255113047
-64.84005563282336 -7.112757126385779 0.24800096510567346
-64.3393602225313 -7.081062614213027 0.24516754189656495
-63.838664812239216 -7.048997784020599 0.24234517212165815
-63.33796940194715 -7.016561547679637 0.23953397201863744
-62.83727399165508 -6.983752817061327 0.2367340578251765
-62.336578581363 -6.950570504036796 0.23394554577895973
-61.83588317107093 -6.917013520477208 0.2311685521176635
-61.335187760778865 -6.88308077825372 0.22840319307897303
-60.834492350486784 -6.8487711892374685 0.2256495849005594
-60.333796940194716 -6.814083665299624 0.2229078438201105
-59.83310152990265 -6.779017118311338 0.22017808607530095
-59.33240611961057 -6.743570460143753 0.21746042790381245
-58.8317107093185 -6.7077426026680405 0.2147549855433258
-58.33101529902643 -6.671532457755335 0.2120618752315174
-57.83031988873435 -6.634938937276791 0.20938121320607248
-57.329624478442284 -6.597960953103567 0.20671311570466475
-56.82892906815022 -6.56059741710683 0.2040576989649777
-56.328233657858135 -6.522847241157712 0.20141507922469035
-55.82753824756607 -6.484709337127373 0.19878537272148353
-55.326842837273986 -6.446182616886977 0.1961686956930345
-54.82614742698192 -6.407265992307658 0.19356516437702406
-54.32545201668985 -6.3679583752605895 0.19097489501113127
-53.82475660639777 -6.328258677616908 0.18839800383303693
-53.3240611961057 -6.288165811247782 0.18583460708042274
-52.823365785813635 -6.247678688024349 0.18328482099096507
-52.322670375521554 -6.20679621981777 0.18074876180234653
-51.82197496522949 -6.16551731849921 0.17822654575224348
-51.321279554937405 -6.1238408959398 0.17571828907833761
-50.82058414464535 -6.081765864010708 0.17322410801830887
-50.31988873435327 -6.039291134583087 0.1707441188098354
-49.81919332406119 -5.996415619528074 0.16827843769060155
-49.318497913769136 -5.953138230716843 0.16582718089828194
-48.817802503477054 -5.909457880020541 0.16339046467055915
-48.31710709318497 -5.8653734793103105 0.16096840524511044
-47.81641168289292 -5.820883940457327 0.1585611188596193
-47.31571627260084 -5.7759881753327305 0.15616872175176208
-46.81502086230876 -5.7306850958076705 0.15379133015921784
-46.3143254520167 -5.684973613753301 0.15142906031967182
-45.81363004172462 -5.638852641040782 0.14908202847079863
-45.31293463143254 -5.592321089541251 0.14675035085028262
-44.81223922114049 -5.545377871125896 0.14443414369579574
-44.311543810848406 -5.498021897665843 0.142133523245025
-43.810848400556324 -5.45025208103224 0.1398486057356477
-43.31015299026427 -5.4020673330962525 0.13757950740534372
-42.80945757997219 -5.353466565729051 0.13532634449179212
-42.30876216968011 -5.304448690801752 0.1330892332326746
-41.808066759388026 -5.255012620185531 0.13086828986566842
-41.30737134909597 -5.205157265751547 0.1286636306284553
-40.80667593880389 -5.1548815393709235 0.12647537175871512
-40.30598052851181 -5.104184352914843 0.1243036294941243
-39.80528511821976 -5.053064618254449 0.12214852007236718
-39.304589707927676 -5.001521247260896 0.12001015973112192
-38.803894297635594 -4.9495531518053415 0.11788866470806489
-38.30319888734354 -4.89715924375894 0.11578415124088134
-37.80250347705146 -4.844338434992822 0.11369673556724855
-37.30180806675938 -4.7910896373781675 0.11162653392484287
-36.801112656467325 -4.737411762786124 0.10957366255135223
-36.30041724617524 -4.683303723087827 0.10753823768444856
-35.79972183588316 -4.62876443015446 0.10552037556181534
-35.29902642559111 -4.573792795857154 0.10352019242113161
-34.79833101529903 -4.518387732067066 0.10153780450007552
-34.297635605006946 -4.462548150655351 0.09957332803633054
-33.79694019471489 -4.406272963493176 0.09762687926757393
-33.29624478442281 -4.349561082451664 0.09569857443148563
-32.79554937413073 -4.292411419401981 0.09378852976574556
-32.294853963838676 -4.2348228862153166 0.09189686150803186
-31.794158553546595 -4.176794394762767 0.09002368589602891
-31.293463143254513 -4.11832485691551 0.0881691191674113
-30.79276773296246 -4.059413184544716 0.08633327755986339
-30.29207232267038 -4.000058289521507 0.08451627731106068
-29.791376912378297 -3.9402590837170566 0.08271823465868486
-29.290681502086244 -3.8800144790025266 0.08093926584041586
-28.789986091794162 -3.8193233872490397 0.07917948709393183
-28.28929068150208 -3.758184720327768 0.07743901465691624
-27.788595271210028 -3.6965973901098677 0.07571796476704726
-27.287899860917946 -3.6345603084664955 0.07401645366199858
-26.787204450625865 -3.5720723872687836 0.0723345975794599
-26.28650904033381 -3.509132538387907 0.0706725127571067
-25.78581363004173 -3.4457396736950017 0.06903031543261892
-25.28511821974965 -3.3818927050612357 0.06740812184367204
-24.784422809457595 -3.3175905443577554 0.06580604822795219
-24.283727399165514 -3.2528321034557255 0.06422421082313487
-23.783031988873432 -3.187616294226264 0.06266272586690444
-23.28233657858135 -3.1219420285405812 0.0611217095969355
-22.781641168289298 -3.055808218269778 0.059601278250909745
-22.280945757997216 -2.9892137752850223 0.058101548066507996
-21.780250347705135 -2.9221576114574948 0.05662263528140929
-21.27955493741308 -2.8546386386583205 0.05516465613329355
-20.778859527121 -2.7866557687586573 0.05372772685983804
-20.27816411682892 -2.7182079136296515 0.0523119636987289
-19.777468706536865 -2.649293985142485 0.05091748288763717
-19.276773296244784 -2.579912895168273 0.04954440066425256
-18.776077885952702 -2.5100635555782045 0.04819283326624521
-18.27538247566065 -2.439744878243411 0.046862896931300385
-17.774687065368568 -2.368955775035037 0.04555470789709801
-17.273991655076486 -2.297695157824265 0.04426838240131445
-16.773296244784433 -2.225961938482239 0.0430040366816323
-16.27260083449235 -2.153755028880083 0.04176178697573238
-15.77190542420027 -2.0810733408889863 0.040541749521291054
-15.271210013908217 -2.0079157863800865 0.03934404055598914
-14.770514603616135 -1.93428127722455 0.03816877631750745
-14.269819193324054 -1.8601687252935086 0.03701607304352503
-13.769123783032 -1.7855770424581499 0.03588604697172268
-13.268428372739919 -1.7105051405895768 0.03477881433977767
-12.767732962447838 -1.634951931558978 0.03369449138537259
-12.267037552155784 -1.5589163272375055 0.03263319434618647
-11.766342141863703 -1.4823972394963114 0.031595039459895696
-11.265646731571621 -1.4053935802065278 0.030580142964183737
-10.764951321279568 -1.3279042612393352 0.029588621096733186
-10.264255910987487 -1.2499281944658716 0.028620590095215975
-9.763560500695405 -1.1714642917572902 0.027676166197318247
-9.262865090403352 -1.0925114649847574 0.026755465640717263
-8.76216968011127 -1.0130686260194253 0.025858604663091173
-8.261474269819189 -0.9331346867324259 0.02498569950212523
-7.760778859527136 -0.8527085589949324 0.02413686639549137
