Polar data for NACA 0012 at Re = 1519655.1724137932
Alpha (deg) Cl Cd
-180.0 -8.062494548793715 1.6354126065058374
-179.49930458970792 -8.066890534140413 1.631091202910848
-178.99860917941587 -8.071136151702301 1.6267396502006026
-178.49791376912378 -8.07523142975884 1.6223581923877364
-177.9972183588317 -8.079176396589467 1.6179470734848904
-177.49652294853965 -8.082971080473644 1.613506537504698
-176.99582753824757 -8.086615509690812 1.6090368284597967
-176.4951321279555 -8.090109712520427 1.6045381903628224
-175.99443671766343 -8.093453717241943 1.600010867226411
-175.49374130737135 -8.096647552134801 1.5954551030631994
-174.99304589707927 -8.099691245478457 1.5908711418858277
-174.49235048678722 -8.102584825552366 1.5862592277069247
-173.99165507649514 -8.10532832063597 1.5816196045391362
-173.49095966620305 -8.107921759008729 1.5769525163950917
-172.990264255911 -8.110365168950079 1.572258207287429
-172.48956884561892 -8.112658578739484 1.5675369212287873
-171.98887343532684 -8.114802016656395 1.5627889022318027
-171.48817802503476 -8.11679551098025 1.5580143943091074
-170.9874826147427 -8.118639089990516 1.5532136414733462
-170.48678720445062 -8.120332781966628 1.5483868877371434
-169.98609179415854 -8.121876615188047 1.5435343771131482
-169.4853963838665 -8.123270617934217 1.5386563536139877
-168.9847009735744 -8.124514818484592 1.533753061252303
-168.48400556328232 -8.125609245118628 1.5288247440407334
-167.98331015299027 -8.126553926115765 1.523871645991908
-167.4826147426982 -8.12734888975546 1.5188940111184686
-166.9819193324061 -8.127994164317162 1.5138920834330485
-166.48122392211405 -8.128489778080322 1.508866106948288
-165.98052851182197 -8.128835759324396 1.503816325676824
-165.4798331015299 -8.12903213632882 1.498742983631286
-164.97913769123784 -8.129078937373055 1.493646324824318
-164.47844228094576 -8.128976190736555 1.4885265932685539
-163.97774687065368 -8.128723924698761 1.483384032976628
-163.47705146036162 -8.128322167539132 1.4782188879611795
-162.97635605006954 -8.127770947537112 1.4730314022348445
-162.47566063977746 -8.127070292972157 1.4678218198102606
-161.9749652294854 -8.126220232123714 1.4625903847000619
-161.47426981919332 -8.125220793271229 1.457337340916885
-160.97357440890124 -8.124072004694163 1.4520629324733705
-160.4728789986092 -8.122773894671965 1.4467674033821487
-159.9721835883171 -8.121326491484076 1.441450997655861
-159.47148817802503 -8.119729823409958 1.4361139593071404
-158.97079276773297 -8.117983918729056 1.430756532348629
-158.4700973574409 -8.116088805720818 1.425378960792956
-157.9694019471488 -8.114044512664705 1.419981488652762
-157.46870653685676 -8.11185106784015 1.4145643599406832
-156.96801112656468 -8.109508499526623 1.409127818669358
-156.4673157162726 -8.10701683600356 1.40367210885142
-155.96662030598054 -8.104376105550418 1.3981974744995054
-155.46592489568846 -8.101586336446648 1.392704159626253
-154.96522948539638 -8.098647556971699 1.3871924082442952
-154.46453407510432 -8.095559795405023 1.381662464366275
-153.96383866481224 -8.092323080026066 1.3761145720048245
-153.46314325452016 -8.088937439114282 1.3705489751725806
-152.9624478442281 -8.085402900949127 1.364965917882181
-152.46175243393603 -8.081719493810038 1.3593656441462614
-151.96105702364395 -8.077887245976484 1.3537483979774596
-151.4603616133519 -8.073906185727896 1.3481144233884088
-150.9596662030598 -8.069776341343736 1.3424639643917484
-150.45897079276773 -8.06549774110346 1.3367972650001152
-149.95827538247568 -8.061070413286501 1.331114569226146
-149.4575799721836 -8.056494386172325 1.3254161210824738
-148.9568845618915 -8.051769688040377 1.319702164581739
-148.45618915159943 -8.046896347170108 1.3139729437365777
-147.95549374130738 -8.041874391840967 1.3082287025596238
-147.4547983310153 -8.036703850332408 1.302469685063514
-146.95410292072324 -8.03138475092388 1.2966961352608861
-146.45340751043116 -8.025917121894832 1.2909082971643786
-145.95271210013908 -8.02030099152471 1.2851064147866238
-145.452016689847 -8.014536388092978 1.2792907321402638
-144.95132127955495 -8.008623339879076 1.2734614932379291
-144.45062586926286 -8.002561875162456 1.267618942092261
-143.94993045897078 -7.996352022222575 1.26176332271589
-143.44923504867873 -7.9899938093388725 1.25589487912146
-142.94853963838665 -7.983487264790814 1.2500138553216058
-142.44784422809457 -7.976832416857834 1.244120495328959
-141.9471488178025 -7.970029293819393 1.23821504315616
-141.44645340751043 -7.96307792395494 1.2322977428158464
-140.94575799721835 -7.955978335543921 1.2263688383206521
-140.44506258692627 -7.948730556865795 1.2204285736832123
-139.94436717663422 -7.941334616200005 1.214477192916169
-139.44367176634213 -7.9337905418260055 1.2085149400321538
-138.94297635605005 -7.926098362023246 1.202542059043805
-138.442280945758 -7.918258105071176 1.1965587939637576
-137.94158553546592 -7.910269799249249 1.190565388804653
-137.44089012517384 -7.902133472836911 1.1845620875791216
-136.94019471488178 -7.893849154113616 1.1785491342998047
-136.4394993045897 -7.885416871358818 1.1725267729793345
-135.93880389429762 -7.8768366528519556 1.1664952476303487
-135.43810848400557 -7.868108526872496 1.1604548022654868
-134.9374130737135 -7.8592325216998775 1.1544056808973846
-134.4367176634214 -7.850208665613551 1.1483481275386744
-133.93602225312935 -7.841036986892976 1.1422823862019993
-133.43532684283727 -7.831717513817595 1.136208700899988
-132.9346314325452 -7.822250274666858 1.1301273156452851
-132.43393602225314 -7.812635297720225 1.1240384744505214
-131.93324061196105 -7.80287261125713 1.1179424213283327
-131.43254520166897 -7.792962243557047 1.11183940029136
-130.93184979137692 -7.782904222899405 1.1057296553522395
-130.43115438108484 -7.772698577563664 1.099613430523607
-129.93045897079276 -7.762345335829274 1.0934909698180963
-129.4297635605007 -7.751844525975685 1.0873625172483454
-128.92906815020862 -7.741196176282352 1.0812283168269936
-128.42837273991654 -7.730400315028715 1.0750886125666714
-127.92767732962449 -7.719456970494233 1.0689436484800219
-127.4269819193324 -7.7083661709583575 1.0627936685796773
-126.92628650904032 -7.69712794470053 1.0566389168782735
-126.42559109874827 -7.685742320000213 1.0504796373884535
-125.92489568845619 -7.6742093251368475 1.0443160741228479
-125.42420027816411 -7.662528988389888 1.0381484710940925
-124.92350486787205 -7.6507013380387905 1.0319770723148285
-124.42280945757997 -7.638726402362992 1.0258021217976865
-123.92211404728789 -7.626604209641958 1.0196238635553112
-123.42141863699584 -7.614334788155127 1.0134425416003279
-122.92072322670376 -7.6019181661819575 1.0072583999453848
-122.42002781641168 -7.589354372001897 1.0010716826031125
-121.91933240611961 -7.576643433894394 0.9948826335861487
-121.41863699582754 -7.563785380138904 0.9886914969071274
-120.91794158553546 -7.550780239014874 0.9824985165786881
-120.41724617524339 -7.537628038801757 0.9763039366134649
-119.91655076495132 -7.524328807779001 0.9701080010240954
-119.41585535465924 -7.51088257422606 0.9639109538232191
-118.91515994436718 -7.49728936642238 0.95771303902347
-118.41446453407511 -7.483549212647415 0.9515145006374823
-117.91376912378303 -7.469662141180614 0.9453155826778972
-117.41307371349096 -7.455628180301432 0.9391165291573487
-116.91237830319889 -7.441447358289307 0.9329175840884709
-116.41168289290681 -7.4271197034237035 0.9267189914839034
-115.91098748261474 -7.412645243984071 0.9205209953562836
-115.41029207232268 -7.398024008249853 0.9143238397182458
-114.9095966620306 -7.3832560245005014 0.9081277685824294
-114.40890125173853 -7.3683413210154685 0.9019330259614631
-113.90820584144646 -7.353279926074205 0.895739855867997
-113.40751043115438 -7.338071867956164 0.8895485023146528
-112.90681502086231 -7.322717174940792 0.883359209314077
-112.40611961057024 -7.307215875307542 0.8771722208789019
-111.90542420027816 -7.291567997335865 0.870987781021767
-111.4047287899861 -7.275773569305206 0.8648061337553063
-110.90403337969401 -7.259832619495023 0.8586275230921576
-110.40333796940195 -7.243745176184761 0.8524521930449567
-109.90264255910988 -7.227511267653875 0.8462803876263394
-109.4019471488178 -7.21113092218181 0.8401123508489416
-108.90125173852573 -7.194604168048024 0.8339483267254046
-108.40055632823366 -7.177931033531967 0.8277885592683625
-107.89986091794158 -7.1611115469130775 0.8216332924904457
-107.39916550764951 -7.144145736470819 0.8154827704043008
-106.89847009735745 -7.1270336304846404 0.8093372370225567
-106.39777468706536 -7.109775257233985 0.8031969363578526
-105.8970792767733 -7.092370644998316 0.7970621124228299
-105.39638386648123 -7.07481982205707 0.7909330092301137
-104.89568845618915 -7.057122816689703 0.7848098707923505
-104.39499304589708 -7.03927965717567 0.7786929411221746
-103.89429763560501 -7.021290371794419 0.7725824642322217
-103.39360222531293 -7.003154988825398 0.7664786841351259
-102.89290681502086 -6.984873536548055 0.7603818448435249
-102.3922114047288 -6.966446043241846 0.7542921903700581
-101.89151599443672 -6.9478725371862255 0.7482099647273597
-101.39082058414465 -6.929153046660635 0.742135411928069
-100.89012517385257 -6.910287599944533 0.7360687759848166
-100.3894297635605 -6.891276225317363 0.7300103009102437
-99.88873435326843 -6.872118951058579 0.7239602307169861
-99.38803894297635 -6.8528158054476345 0.7179188094176816
-98.88734353268428 -6.833366816763967 0.7118862810249607
-98.38664812239222 -6.813772013287051 0.7058628895514698
-97.88595271210013 -6.794031423296311 0.6998488790098361
-97.38525730180807 -6.774145075071218 0.6938444934127024
-96.884561891516 -6.754112996891213 0.6878499767727011
-96.38386648122392 -6.73393521703574 0.6818655731024681
-95.88317107093185 -6.713611763784265 0.6758915264146481
-95.38247566063978 -6.693142665416233 0.6699280807218682
-94.8817802503477 -6.672527950211081 0.6639754800367677
-94.38108484005564 -6.651767646448282 0.6580339683719842
-93.88038942976357 -6.630861782407277 0.6521037897401556
-93.37969401947149 -6.609810386367507 0.6461851881539122
-92.87899860917942 -6.588613486608431 0.6402784076258989
-92.37830319888734 -6.567271111409508 0.6343836921687445
-91.87760778859527 -6.545783289050179 0.6285012857950971
-91.3769123783032 -6.524150047809891 0.6226314325175786
-90.87621696801112 -6.5023714159680965 0.6167743763488336
-90.37552155771905 -6.480447421804258 0.6109303613015016
-89.87482614742699 -6.458378093597813 0.6050996313882113
-89.3741307371349 -6.436163459628209 0.599282430621604
-88.87343532684284 -6.413803548174912 0.593479003014312
-88.37273991655077 -6.39129838751736 0.5876895925789782
-87.87204450625869 -6.368648005935012 0.5819144433282368
-87.37134909596662 -6.345852431707304 0.5761537992747165
-86.87065368567455 -6.322911693113711 0.5704079044310675
-86.36995827538247 -6.299825818433658 0.5646770028099166
-85.8692628650904 -6.276594835946612 0.5589613384239034
-85.36856745479834 -6.253218773932027 0.553261155285669
-84.86787204450626 -6.229697660669335 0.5475766974078351
-84.36717663421419 -6.206031524437994 0.5419082088030553
-83.86648122392211 -6.182220393517466 0.5362559334839603
-83.36578581363004 -6.158264296187196 0.5306201154631858
-82.86509040333797 -6.134163260726617 0.5250009987533641
-82.36439499304589 -6.109917315415207 0.5193988273671384
-81.86369958275382 -6.085526488532406 0.5138138453171408
-81.36300417246176 -6.060990808357645 0.5082462966160073
-80.86230876216968 -6.036310303170404 0.5026964252763773
-80.36161335187761 -6.011485001250127 0.49716447531088837
-79.86091794158554 -5.986514930876251 0.4916506907321747
-79.36022253129346 -5.961400120328233 0.48615531555287395
-78.85952712100139 -5.936140597885534 0.48067859378562194
-78.35883171070932 -5.910736391827588 0.47522076944304925
-77.85813630041724 -5.885187530433854 0.46978208653780773
-77.35744089012518 -5.859494041983788 0.4643627890825226
-76.85674547983311 -5.833655954756829 0.4589631210898262
-76.35605006954103 -5.807673297032431 0.45358332657236855
-75.85535465924896 -5.781546097090055 0.44822364954277316
-75.35465924895689 -5.755274383209138 0.44288433401368654
-74.85396383866481 -5.728858183669137 0.43756562399773924
-74.35326842837274 -5.702297526749505 0.4322677635075689
-73.85257301808066 -5.675592440729685 0.4269909965558114
-73.3518776077886 -5.648742953889138 0.42173556715510974
-72.85118219749653 -5.621749094507298 0.4165017193180873
-72.35048678720445 -5.594610890863632 0.4112896970573925
-71.84979137691238 -5.567328371237587 0.40609974438565577
-71.34909596662031 -5.539901563908601 0.4009321053155184
-70.84840055632823 -5.512330497156147 0.3957870238596144
-70.34770514603616 -5.4846151992596655 0.3906647440305797
-69.8470097357441 -5.456755698498587 0.3855655098410502
-69.34631432545201 -5.428752023152392 0.38048956530365996
-68.84561891515995 -5.400604201500522 0.3754371544310555
-68.34492350486788 -5.372312261822423 0.3704085212358621
-67.8442280945758 -5.343876232397535 0.36540390973072623
-67.34353268428373 -5.31529614150534 0.3604235639282749
-66.84283727399166 -5.286572017425262 0.35546772784114933
-66.34214186369958 -5.257703888436745 0.3505366454819836
-65.84144645340751 -5.228691782819273 0.3456305608634207
-65.34075104311543 -5.199535728852269 0.3407497179980876
-64.84005563282336 -5.170235754815185 0.3358943608986291
-64.3393602225313 -5.140791888987491 0.3310647335776775
-63.838664812239216 -5.1112041596486195 0.32626108004787047
-63.33796940194715 -5.081472595078023 0.3214836443218456
-62.83727399165508 -5.051597223555164 0.31673267041223885
-62.336578581363 -5.021578073359479 0.31200840233168425
-61.83588317107093 -4.991415172770425 0.3073110840928177
-61.335187760778865 -4.961108550067448 0.302640959708284
-60.834492350486784 -4.930658233530008 0.29799827319071004
-60.333796940194716 -4.900064251437553 0.2933832685527371
-59.83310152990265 -4.86932663206952 0.28879618980700106
-59.33240611961057 -4.8384454037053795 0.284237280966136
-58.8317107093185 -4.807420594624571 0.2797067860427831
-58.33101529902643 -4.776252233106537 0.27520494904957293
-57.83031988873435 -4.744940347430753 0.27073201399915026
-57.329624478442284 -4.7134849658766464 0.26628822490414383
-56.82892906815022 -4.681886116723679 0.26187382577718954
-56.328233657858135 -4.650143828251292 0.2574890606309357
-55.82753824756607 -4.618258128738948 0.25313417347800926
-55.326842837273986 -4.586229046466099 0.24880940833104614
-54.82614742698192 -4.554056609712174 0.24451500920268399
-54.32545201668985 -4.52174084675664 0.2402512201055551
-53.82475660639777 -4.489281785878959 0.23601828505230782
-53.3240611961057 -4.456679455358555 0.23181644805557267
-52.823365785813635 -4.423933883474892 0.22764595312798197
-52.322670375521554 -4.391045098507431 0.22350704428217694
-51.82197496522949 -4.358013128735608 0.2193999655307899
-51.321279554937405 -4.324838002438864 0.2153249608864638
-50.82058414464535 -4.29151974789668 0.211282274361831
-50.31988873435327 -4.2580583933884855 0.20727214996952736
-49.81919332406119 -4.224453967193733 0.20329483172219587
-49.318497913769136 -4.190706497591877 0.19935056363246173
-48.817802503477054 -4.156816012862369 0.1954395897129697
-48.31710709318497 -4.122782541284644 0.1915621539763539
-47.81641168289292 -4.088606111138177 0.18771850043525373
-47.31571627260084 -4.054286750702411 0.18390887310229975
-46.81502086230876 -4.019824488256778 0.18013351599013316
-46.3143254520167 -3.9852193520807555 0.17639267311138984
-45.81363004172462 -3.9504713704537844 0.17268658847870566
-45.31293463143254 -3.9155805716553127 0.16901550610472005
-44.81223922114049 -3.880546983964778 0.16537967000205822
-44.311543810848406 -3.84537063566166 0.16177932418337204
-43.810848400556324 -3.810051555025386 0.1582147126612885
-43.31015299026427 -3.774589770335411 0.15468607944845236
-42.80945757997219 -3.7389853098711905 0.1511936685574835
-42.30876216968011 -3.7032382019121757 0.14773772400103735
-41.808066759388026 -3.6673484747378007 0.1443184897917409
-41.30737134909597 -3.631316156627549 0.14093620994223177
-40.80667593880389 -3.595141275860848 0.13759112846514943
-40.30598052851181 -3.5588238607171485 0.13428348937312617
-39.80528511821976 -3.52236393947591 0.1310135366787979
-39.304589707927676 -3.4857615404165765 0.1277815143948111
-38.803894297635594 -3.449016691818593 0.12458766653378572
-38.30319888734354 -3.4121294219614287 0.12143223710837181
-37.80250347705146 -3.375099759124514 0.11831547013119992
-37.30180806675938 -3.3379277315873077 0.1152376096149077
-36.801112656467325 -3.3006133676292686 0.11219889957213636
-36.30041724617524 -3.2631566955298306 0.10919958401551466
-35.79972183588316 -3.2255577435684595 0.10623990695768026
-35.29902642559111 -3.187816540024607 0.10332011241127792
-34.79833101529903 -3.1499331131776964 0.10044044438893462
-34.297635605006946 -3.111907491307208 0.09760114690329158
-33.79694019471489 -3.073739702692593 0.09480246396698289
-33.29624478442281 -3.0354297756132746 0.09204463959264442
-32.79554937413073 -2.9969777383487335 0.08932791779291915
-32.294853963838676 -2.9583836191784068 0.08665254258043587
-31.794158553546595 -2.919647446381732 0.08401875796783753
-31.293463143254513 -2.880769248238189 0.0814268079677547
-30.79276773296246 -2.8417490530272085 0.07887693659282857
-30.29207232267038 -2.802586889028235 0.07636938785569325
-29.791376912378297 -2.763282784520734 0.07390440576898105
-29.290681502086244 -2.7238367677841717 0.07148223434533851
-28.789986091794162 -2.684248867097957 0.06910311759739618
-28.28929068150208 -2.644519110741556 0.06676729953778993
-27.788595271210028 -2.604647526994442 0.06447502417916096
-27.287899860917946 -2.5646341441360443 0.06222653553413804
-26.787204450625865 -2.524478990445801 0.060022077615364156
-26.28650904033381 -2.4841820942032067 0.057861894435473404
-25.78581363004173 -2.44374348368767 0.05574623000710521
-25.28511821974965 -2.4031631871786567 0.05367532834289013
-24.784422809457595 -2.362441232955626 0.05164943345547113
-24.283727399165514 -2.3215776492980007 0.04966878935747698
-23.783031988873432 -2.280572464485261 0.04773364006155423
-23.28233657858135 -2.239425706796852 0.04584422958032808
-22.781641168289298 -2.1981374045122104 0.044000801926445066
-22.280945757997216 -2.1567075859108025 0.04220360111254107
-21.780250347705135 -2.1151362792720727 0.040452871151243075
-21.27955493741308 -2.0734235128754657 0.03874885605519762
-20.778859527121 -2.031569315000433 0.037091799837035255
-20.27816411682892 -1.9895737139264407 0.0354819465093954
-19.777468706536865 -1.9474367379329118 0.03391954008491038
-19.276773296244784 -1.9051584152993266 0.032404824576224955
-18.776077885952702 -1.8627387743051154 0.03093804399596789
-18.27538247566065 -1.8201778432297369 0.02951944235678039
-17.774687065368568 -1.7774756503526499 0.02814926367129833
-17.273991655076486 -1.7346322239532848 0.02682775195215581
-16.773296244784433 -1.6916475923111003 0.025555151211988703
-16.27260083449235 -1.6485217837055552 0.024331705463438213
-15.77190542420027 -1.6052548264161013 0.023157658719140217
-15.271210013908217 -1.5618467487221617 0.022033254991728812
-14.770514603616135 -1.5182975789032236 0.020958738293834545
-14.269819193324054 -1.4746073452387245 0.019934352638103947
-13.769123783032 -1.4307760760080948 0.01896034203717112
-13.268428372739919 -1.3868037994908144 0.018036950503670157
-12.767732962447838 -1.3426905439663281 0.01716442205024049
-12.267037552155784 -1.2984363377140733 0.016343000689512666
-11.766342141863703 -1.2540412090134945 0.015572930434129661
-11.265646731571621 -1.2095051861440647 0.0148544552967238
-10.764951321279568 -1.1648282973852355 0.014187819289938064
-10.264255910987487 -1.1200105710164303 0.013573266426402997
-9.763560500695405 -1.0750677329624474 0.013005187760778854
-9.262865090403352 -1.031385813630043 0.012368525730180827
-8.76216968011127 -0.9888892906815026 0.011733143254520172
-8.261474269819189 -0.946511543810848 0.011201933240611956
-7.760778859527136 -0.8965154381084858 0.010657287899860935
