Polar data for NACA 0012 at Re = 764827.5862068966
Alpha (deg) Cl Cd
-180.0 -8.398516414049595 2.0566389844909847
-179.49930458970792 -8.39942163323905 2.0514141728454747
-178.99860917941587 -8.400170987948414 2.046151589361217
-178.49791376912378 -8.400764682037785 2.0408515286072872
-177.9972183588317 -8.401202919367279 2.0355142851527694
-177.49652294853965 -8.40148590379701 2.030140153566737
-176.99582753824757 -8.401613839187089 2.024729428418277
-176.4951321279555 -8.40158692939763 2.019282404276464
-175.99443671766343 -8.401405378288747 2.0137993757103803
-175.49374130737135 -8.40106938972055 2.0082806372891038
-174.99304589707927 -8.400579167553154 2.0027264835817173
-174.49235048678722 -8.399934915646668 1.9971372091572968
-173.99165507649514 -8.39913683786121 1.9915131085849267
-173.49095966620305 -8.398185138056885 1.9858544764336794
-172.990264255911 -8.39708002009381 1.9801616072726413
-172.48956884561892 -8.395821687832104 1.9744347956708892
-171.98887343532684 -8.394410345131867 1.9686743361975076
-171.48817802503476 -8.392846195853217 1.962880523421568
-170.9874826147427 -8.391129443856272 1.9570536519121586
-170.48678720445062 -8.389260293001136 1.951194016238349
-169.98609179415854 -8.387238947147932 1.9453019109692327
-169.4853963838665 -8.385065610156758 1.9393776306738757
-168.9847009735744 -8.382740485887737 1.9334214699213663
-168.48400556328232 -8.38026377820098 1.9274337232807803
-167.98331015299027 -8.377635690956602 1.9214146853212006
-167.4826147426982 -8.37485642801471 1.915364650611703
-166.9819193324061 -8.371926193235417 1.909283913721373
-166.48122392211405 -8.368845190478837 1.903172769219283
-165.98052851182197 -8.365613623605089 1.8970315116745229
-165.4798331015299 -8.362231696474275 1.8908604356561614
-164.97913769123784 -8.358699612946513 1.8846598357332822
-164.47844228094576 -8.355017576881917 1.8784300064749693
-163.97774687065368 -8.351185792140594 1.8721712424502974
-163.47705146036162 -8.34720446258266 1.8658838382283451
-162.97635605006954 -8.343073792068235 1.8595680883781998
-162.47566063977746 -8.338793984457418 1.8532242874689344
-161.9749652294854 -8.334365243610328 1.8468527300696311
-161.47426981919332 -8.329787773387078 1.8404537107493666
-160.97357440890124 -8.325061777647782 1.8340275240772281
-160.4728789986092 -8.320187460252548 1.8275744646222871
-159.9721835883171 -8.315165025061496 1.8210948269536273
-159.47148817802503 -8.309994675934728 1.814588905640329
-158.97079276773297 -8.304676616732369 1.8080569952514725
-158.4700973574409 -8.299211051314522 1.8014993903561325
-157.9694019471488 -8.293598183541295 1.7949163855233947
-157.46870653685676 -8.287838217272817 1.788308275322334
-156.96801112656468 -8.281931356369196 1.781675354322036
-156.4673157162726 -8.27587780469053 1.7750179170915739
-155.96662030598054 -8.269677766096947 1.768336258200033
-155.46592489568846 -8.26333144444856 1.7616306722164885
-154.96522948539638 -8.256839043605464 1.7549014537100223
-154.46453407510432 -8.250200767427796 1.7481488972497163
-153.96383866481224 -8.243416819775646 1.7413732974046474
-153.46314325452016 -8.236487404509141 1.7345749487438957
-152.9624478442281 -8.229412725488395 1.7277541458365415
-152.46175243393603 -8.222192986573504 1.7209111832516633
-151.96105702364395 -8.214828391624604 1.7140463555583412
-151.4603616133519 -8.207319144501788 1.7071599573256573
-150.9596662030598 -8.199665449065172 1.7002522831226918
-150.45897079276773 -8.19186750917488 1.6933236275185197
-149.95827538247568 -8.18392552869102 1.6863742850822248
-149.4575799721836 -8.175839711473692 1.6794045503828836
-148.9568845618915 -8.167610261383025 1.6724147179895765
-148.45618915159943 -8.159237382279127 1.6654050824713909
-147.95549374130738 -8.1507212780221 1.6583759383973926
-147.4547983310153 -8.142062152472072 1.6513275803366763
-146.95410292072324 -8.13326020948914 1.6442603028583096
-146.45340751043116 -8.124315652933436 1.63717440053138
-145.95271210013908 -8.115228686665052 1.6300701679249587
-145.452016689847 -8.10599951454412 1.6229478996081368
-144.95132127955495 -8.096628340430737 1.6158078901499855
-144.45062586926286 -8.087115368185025 1.6086504341195886
-143.94993045897078 -8.077460801667083 1.601475826086023
-143.44923504867873 -8.067664844737045 1.594284360618372
-142.94853963838665 -8.057727701255015 1.5870763322857129
-142.44784422809457 -8.047649575081095 1.5798520356571273
-141.9471488178025 -8.037430670075409 1.572611765301692
-141.44645340751043 -8.027071190098063 1.5653558157884873
-140.94575799721835 -8.016571339009172 1.558084481686595
-140.44506258692627 -8.005931320668857 1.550798057565094
-139.94436717663422 -7.995151338937215 1.543496837993064
-139.44367176634213 -7.9842315976743725 1.5361811175395856
-138.94297635605005 -7.9731723007404325 1.5288511907737372
-138.442280945758 -7.9619736519955095 1.521507352264599
-137.94158553546592 -7.950635855299722 1.5141498965812494
-137.44089012517384 -7.939159114513177 1.5067791182927741
-136.94019471488178 -7.9275436334959855 1.4993953119682426
-136.4394993045897 -7.9157896161082695 1.491998772176744
-135.93880389429762 -7.903897266210129 1.4845897934873533
-135.43810848400557 -7.891866787661683 1.4771686704691525
-134.9374130737135 -7.879698384323048 1.4697356976912164
-134.4367176634214 -7.867392260054326 1.4622911697226324
-133.93602225312935 -7.854948618715645 1.4548353811324755
-133.43532684283727 -7.842367664167102 1.4473686264898258
-132.9346314325452 -7.829649600268822 1.4398912003637654
-132.43393602225314 -7.816794630880902 1.4324033973233692
-131.93324061196105 -7.803802959863467 1.424905511937721
-131.43254520166897 -7.790674791076628 1.417397838775901
-130.93184979137692 -7.777410328380507 1.409880672406986
-130.43115438108484 -7.7640097756351905 1.4023543074000577
-129.93045897079276 -7.750473336700817 1.3948190383241985
-129.4297635605007 -7.736801215437491 1.387275159748485
-128.92906815020862 -7.722993615705309 1.3797229662419919
-128.42837273991654 -7.70905074136441 1.3721627523738085
-127.92767732962449 -7.694972796274896 1.3645948127130079
-127.4269819193324 -7.6807599842968655 1.3570194418286756
-126.92628650904032 -7.666412509290448 1.3494369342898813
-126.42559109874827 -7.651930575115762 1.3418475846657194
-125.92489568845619 -7.6373143856328936 1.334251687525256
-125.42420027816411 -7.622564144701978 1.32664953743758
-124.92350486787205 -7.607680056183127 1.3190414289717647
-124.42280945757997 -7.592662323936433 1.3114276566968939
-123.92211404728789 -7.577511151822036 1.303808515182046
-123.42141863699584 -7.562226743700026 1.2961842989962995
-122.92072322670376 -7.546809303430531 1.28855530270874
-122.42002781641168 -7.531259034873659 1.2809218208884423
-121.91933240611961 -7.515576141889517 1.2732841481044814
-121.41863699582754 -7.499760828338224 1.2656425789259482
-120.91794158553546 -7.483813298079887 1.257997407921914
-120.41724617524339 -7.467733754974623 1.2503489296614627
-119.91655076495132 -7.451522402882545 1.2426974387136709
-119.41585535465924 -7.43517944566377 1.2350432296476206
-118.91515994436718 -7.418705087178394 1.227386597032392
-118.41446453407511 -7.402099531286548 1.219727835437062
-117.91376912378303 -7.38536298184833 1.2120672394307124
-117.41307371349096 -7.368495642723867 1.204405103582427
-116.91237830319889 -7.351497717773259 1.1967417224612755
-116.41168289290681 -7.334369410856627 1.1890773906363434
-115.91098748261474 -7.317110925834075 1.1814124026767163
-115.41029207232268 -7.299722466565728 1.1737470531514673
-114.9095966620306 -7.282204236911688 1.1660816366296713
-114.40890125173853 -7.264556440732071 1.1584164476804175
-113.90820584144646 -7.246779281886989 1.1507517808727843
-113.40751043115438 -7.228872964236554 1.1430879307758466
-112.90681502086231 -7.210837691640882 1.1354251919586882
-112.40611961057024 -7.192673667960082 1.127763858990384
-111.90542420027816 -7.174381097054272 1.1201042264400196
-111.4047287899861 -7.155960182783558 1.1124465888766752
-110.90403337969401 -7.137411129008053 1.104791240869424
-110.40333796940195 -7.1187341395878745 1.097138476987348
-109.90264255910988 -7.099929418383129 1.0894885917995292
-109.4019471488178 -7.080997169253936 1.0818418798750495
-108.90125173852573 -7.061937596060402 1.0741986357829805
-108.40055632823366 -7.042750902662642 1.066559154092411
-107.89986091794158 -7.023437292920771 1.0589237293724127
-107.39916550764951 -7.003996970694899 1.0512926561920781
-106.89847009735745 -6.9844301398451405 1.0436662291204732
-106.39777468706536 -6.9647370042316 1.0360447427266783
-105.8970792767733 -6.944917767714403 1.0284284915797843
-105.39638386648123 -6.92497263415365 1.0208177702488608
-104.89568845618915 -6.904901807409465 1.0132128733029933
-104.39499304589708 -6.884705491341953 1.0056140953112567
-103.89429763560501 -6.864383889811228 0.9980217308427385
-103.39360222531293 -6.843937206677398 0.9904360744665098
-102.89290681502086 -6.823365645800588 0.9828574207516546
-102.3922114047288 -6.802669411040902 0.9752860642672531
-101.89151599443672 -6.7818487062584465 0.9677222995823801
-101.39082058414465 -6.760903735313355 0.9601664212661248
-100.89012517385257 -6.739834702065717 0.9526187238875604
-100.3894297635605 -6.71864181037565 0.9450795020157617
-99.88873435326843 -6.697325264103287 0.937549050219825
-99.38803894297635 -6.67588526710871 0.9300276630688092
-98.88734353268428 -6.654322023252049 0.9225156351318106
-98.38664812239222 -6.6326357363934205 0.9150132609778986
-97.88595271210013 -6.610826610392922 0.9075208351761607
-97.38525730180807 -6.588894849110683 0.9000386522956717
-96.884561891516 -6.56684065640681 0.8925670069055137
-96.38386648122392 -6.5446642361414 0.8851061935747616
-95.88317107093185 -6.522365792174589 0.8776565068725045
-95.38247566063978 -6.499945528366477 0.8702182413678156
-94.8817802503477 -6.477403648577172 0.8627916916297697
-94.38108484005564 -6.4547403566668065 0.8553771522274595
-93.88038942976357 -6.431955856495477 0.8479749177299528
-93.37969401947149 -6.409050351923294 0.8405852827063335
-92.87899860917942 -6.386024046810372 0.833208541725687
-92.37830319888734 -6.362877145016838 0.8258449893570848
-91.87760778859527 -6.339609850402783 0.8184949201696107
-91.3769123783032 -6.316222366828337 0.8111586287323501
-90.87621696801112 -6.292714898153608 0.8038364096143727
-90.37552155771905 -6.269087648238702 0.7965285573847588
-89.87482614742699 -6.245340820943734 0.7892353666125921
-89.3741307371349 -6.221474620128819 0.7819571318669528
-88.87343532684284 -6.197489249654079 0.7746941477169212
-88.37273991655077 -6.173384913379603 0.7674467087315741
-87.87204450625869 -6.1491618151655265 0.760215109479995
-87.37134909596662 -6.124820158871944 0.7529996445312556
-86.87065368567455 -6.10036014835899 0.7458006084544447
-86.36995827538247 -6.075781987486752 0.7386182958186392
-85.8692628650904 -6.051085880115358 0.7314530011929158
-85.36856745479834 -6.026272030104923 0.7243050191463635
-84.86787204450626 -6.001340641315543 0.7171746442480483
-84.36717663421419 -5.976291917607351 0.7100621710670577
-83.86648122392211 -5.951126062840447 0.7029678941724754
-83.36578581363004 -5.9258432808749495 0.6958921081333728
-82.86509040333797 -5.900443775570966 0.6888351075188318
-82.36439499304589 -5.87492775078861 0.6817971868979381
-81.86369958275382 -5.849295410387998 0.6747786408397666
-81.36300417246176 -5.8235469582292465 0.6677797639133957
-80.86230876216968 -5.797682598172439 0.6608008506879038
-80.36161335187761 -5.771702534077732 0.6538421957323767
-79.86091794158554 -5.745606969805212 0.6469040936158909
-79.36022253129346 -5.719396109214993 0.6399868389075302
-78.85952712100139 -5.693070156167191 0.6330907261763642
-78.35883171070932 -5.6666293145219155 0.6262160499914821
-77.85813630041724 -5.6400737881392855 0.6193631049219622
-77.35744089012518 -5.613403780879419 0.6125321855368867
-76.85674547983311 -5.586619496602409 0.6057235864053215
-76.35605006954103 -5.559721139168384 0.5989376020963612
-75.85535465924896 -5.532708912437445 0.5921745271790787
-75.35465924895689 -5.505583020269721 0.5854346562225615
-74.85396383866481 -5.478343666525308 0.5787182837958774
-74.35326842837274 -5.4509910550643275 0.5720257044681173
-73.85257301808066 -5.423525389746888 0.5653572128083507
-73.3518776077886 -5.39594687443311 0.5587131033856668
-72.85118219749653 -5.368255712983085 0.5520936707691387
-72.35048678720445 -5.340452109256954 0.5454992095278485
-71.84979137691238 -5.312536267114814 0.5389300142308763
-71.34909596662031 -5.284508390416774 0.5323863794473024
-70.84840055632823 -5.256368683022958 0.525868599746207
-70.34770514603616 -5.228117348793478 0.5193769696966705
-69.8470097357441 -5.199754591588429 0.5129117838677623
-69.34631432545201 -5.171280615267949 0.5064733368285769
-68.84561891515995 -5.14269562369213 0.5000619231481874
-68.34492350486788 -5.1139998207210935 0.49367783739567594
-67.8442280945758 -5.085193410214944 0.4873213741401191
-67.34353268428373 -5.056276596033814 0.48099282795059717
-66.84283727399166 -5.0272495820378 0.474692493396185
-66.34214186369958 -4.998112572087005 0.46842066504597357
-65.84144645340751 -4.96886577004157 0.4621776374690395
-65.34075104311543 -4.939509379761584 0.4559637052344542
-64.84005563282336 -4.910043605107172 0.44977916291130315
-64.3393602225313 -4.880468649938439 0.443624305068672
-63.838664812239216 -4.850784718115501 0.4374994262756339
-63.33796940194715 -4.820992013498471 0.4314048211012672
-62.83727399165508 -4.7910907399474665 0.4253407841146505
-62.336578581363 -4.761081101322584 0.4193076098848675
-61.83588317107093 -4.730963301483942 0.41330559298100555
-61.335187760778865 -4.7007375442916794 0.4073350279721307
-60.834492350486784 -4.670404033605872 0.401396209427325
-60.333796940194716 -4.639962973286646 0.39548943191567754
-59.83310152990265 -4.609414567194125 0.38961499000625965
-59.33240611961057 -4.578759019188406 0.38377317826815516
-58.8317107093185 -4.547996533129601 0.3779642912704354
-58.33101529902643 -4.517127312877835 0.3721886235821895
-57.83031988873435 -4.486151562293219 0.3664464697724995
-57.329624478442284 -4.455069485235856 0.3607381244104385
-56.82892906815022 -4.423881285565865 0.355063882065085
-56.328233657858135 -4.392587167143364 0.34942403730552274
-55.82753824756607 -4.361187333828442 0.3438188847008302
-55.326842837273986 -4.329681989481254 0.338248718820093
-54.82614742698192 -4.298071337961868 0.33271383423238066
-54.32545201668985 -4.266355583130415 0.3272145255067699
-53.82475660639777 -4.234534928847014 0.3217510872123587
-53.3240611961057 -4.202609578971784 0.31632381391821485
-52.823365785813635 -4.170579737364807 0.3109330001934151
-52.322670375521554 -4.138445607886221 0.3055789406070467
-51.82197496522949 -4.106207394396139 0.3002619297281882
-51.321279554937405 -4.07386530075465 0.2949822621259127
-50.82058414464535 -4.041419530821893 0.2897402323693058
-50.31988873435327 -4.00887028845798 0.2845361350274459
-49.81919332406119 -3.976217777523007 0.2793702646694204
-49.318497913769136 -3.943462201877085 0.27424291586429705
-48.817802503477054 -3.9106037653803467 0.26915438318115614
-48.31710709318497 -3.8776426718928816 0.26410496118907967
-47.81641168289292 -3.844579125274822 0.2590949444571603
-47.31571627260084 -3.811413329386279 0.2541246275544605
-46.81502086230876 -3.7781454880873495 0.24919430505006057
-46.3143254520167 -3.7447758052381515 0.2443042715130549
-45.81363004172462 -3.7113044846988172 0.23945482151250952
-45.31293463143254 -3.6777317303294295 0.2346462496175189
-44.81223922114049 -3.6440577459901204 0.22987885039714195
-44.311543810848406 -3.610282735541001 0.22515291842047314
-43.810848400556324 -3.5764069028421615 0.22046874825658203
-43.31015299026427 -3.542430451753755 0.21582663447456663
-42.80945757997219 -3.508353586135864 0.2112268716434823
-42.30876216968011 -3.474176509848607 0.20666975433243062
-41.808066759388026 -3.4398994267520875 0.20215557711047405
-41.30737134909597 -3.4055225407064524 0.19768463454670704
-40.80667593880389 -3.37104605557177 0.19325722121019917
-40.30598052851181 -3.33647017520818 0.1888736316700378
-39.80528511821976 -3.301795103475807 0.18453416049529248
-39.304589707927676 -3.267021044234734 0.18023910225505768
-38.803894297635594 -3.2321482013450717 0.17598875151839588
-38.30319888734354 -3.19717677866696 0.17178340285440152
-37.80250347705146 -3.1621069800605026 0.1676233508321442
-37.30180806675938 -3.126939009385789 0.16350889002071123
-36.801112656467325 -3.0916730705029662 0.15944031498917577
-36.30041724617524 -3.0563093672721235 0.1554179203066216
-35.79972183588316 -3.020848103553372 0.15144200054212542
-35.29902642559111 -2.985289483206844 0.14751285026477456
-34.79833101529903 -2.9496337100926437 0.14363076404364217
-34.297635605006946 -2.9138809880708747 0.13979603644780492
-33.79694019471489 -2.8780315210016694 0.13600896204635016
-33.29624478442281 -2.8420855127451103 0.13226983540835457
-32.79554937413073 -2.80604316716133 0.1285789511028984
-32.294853963838676 -2.7699046881104463 0.12493660369905835
-31.794158553546595 -2.733670279452549 0.12134308776591818
-31.293463143254513 -2.6973401450477708 0.11779869787255459
-30.79276773296246 -2.660914488756215 0.11430372858805138
-30.29207232267038 -2.6243935144380144 0.11085847448148167
-29.791376912378297 -2.587777425953237 0.10746323012192927
-29.290681502086244 -2.551066427162044 0.1041182900784815
-28.789986091794162 -2.5142607219245177 0.1008239489201973
-28.28929068150208 -2.477360514100776 0.09758050121618178
-27.788595271210028 -2.440366007550952 0.09438824153550096
-27.287899860917946 -2.4032774061351345 0.09124746444723153
-26.787204450625865 -2.366094913713435 0.08815846452045728
-26.28650904033381 -2.328818734145986 0.08512153632426556
-25.78581363004173 -2.2914490712928837 0.08213697442771883
-25.28511821974965 -2.2539861290142396 0.07920507339991512
-24.784422809457595 -2.216430111170186 0.07632612780992754
-24.283727399165514 -2.178781221620805 0.07350043222682923
-23.783031988873432 -2.141039664226237 0.07072828121970753
-23.28233657858135 -2.1032056428465777 0.06800996935763914
-22.781641168289298 -2.065279361341953 0.06534579120970785
-22.280945757997216 -2.0272610235724597 0.06273604134499033
-21.780250347705135 -1.9891508333982157 0.06018101433255618
-21.27955493741308 -1.9509489946793535 0.057681004741503394
-20.778859527121 -1.9126557112759555 0.055236307140905105
-20.27816411682892 -1.874271187048147 0.05284721609983445
-19.777468706536865 -1.8357956258560462 0.050514026187375216
-19.276773296244784 -1.797229231559764 0.04823703197261475
-18.776077885952702 -1.7585722080193973 0.04601652802462619
-18.27538247566065 -1.7198247590950784 0.043852808912482666
-17.774687065368568 -1.6809870886469183 0.04174616920526797
-17.273991655076486 -1.6420594005350138 0.039696903472073
-16.773296244784433 -1.60304189861949 0.03770530628196733
-16.27260083449235 -1.5639347867604654 0.03577167220403121
-15.77190542420027 -1.5247382688180293 0.03389629580734488
-15.271210013908217 -1.4854525486523213 0.03207947166098857
-14.770514603616135 -1.4460778301234383 0.030321494334046073
-14.269819193324054 -1.4066143170914982 0.028622658395590528
-13.769123783032 -1.367062213416605 0.02698325841469862
-13.268428372739919 -1.327421722958884 0.025403588960461243
-12.767732962447838 -1.287693049578439 0.02388394460195864
-12.267037552155784 -1.2478763971353883 0.02242461990826039
-11.766342141863703 -1.2079719694898428 0.02102590944844318
-11.265646731571621 -1.1679799705019134 0.01968810779160146
-10.764951321279568 -1.1279006040317112 0.01841150950681192
-10.264255910987487 -1.0877340739393473 0.017196409163144133
-9.763560500695405 -1.0474902642559105 0.016036189151599434
-9.262865090403352 -1.0056218358831723 0.015083783031988894
-8.76216968011127 -0.9635784422809461 0.014248122392211415
-8.261474269819189 -0.9227500695410289 0.013387440890125167
-7.760778859527136 -0.8811489568845632 0.012679012517385277
