Polar data for NACA 0012 at Re = 1382413.7931034483
Alpha (deg) Cl Cd
-180.0 -7.782931148955148 1.6237810326404587
-179.49930458970792 -7.787450167460852 1.6195648068297672
-178.99860917941587 -7.791824078875708 1.6153186988598798
-178.49791376912378 -7.7960529009251935 1.611042946706965
-177.9972183588317 -7.800136651334784 1.6067377883471858
-177.49652294853965 -7.80407534782996 1.6024034617567102
-176.99582753824757 -7.807869008136194 1.598040204911704
-176.4951321279555 -7.811517649978969 1.593648255788333
-175.99443671766343 -7.8150212910837595 1.5892278523627648
-175.49374130737135 -7.818379949176043 1.5847792326111654
-174.99304589707927 -7.8215936419813 1.5803026345097007
-174.49235048678722 -7.824662387225002 1.5757982960345365
-173.99165507649514 -7.827586202632634 1.5712664551618414
-173.49095966620305 -7.8303651059296655 1.566707349867776
-172.990264255911 -7.832999114841579 1.5621212181285122
-172.48956884561892 -7.835488247093853 1.5575082979202153
-171.98887343532684 -7.837832520411963 1.5528688272190518
-171.48817802503476 -7.840031952521384 1.5482030440011842
-170.9874826147427 -7.842086561147598 1.5435111862427828
-170.48678720445062 -7.843996364016078 1.5387934919200126
-169.98609179415854 -7.845761378852307 1.5340501990090412
-169.4853963838665 -7.8473816233817555 1.529281545486031
-168.9847009735744 -7.848857115329906 1.5244877693271521
-168.48400556328232 -7.850187872422238 1.519669108508569
-167.98331015299027 -7.851373912384222 1.514825801006449
-167.4826147426982 -7.852415252941341 1.5099580847969583
-166.9819193324061 -7.8533119118190715 1.5050661978562607
-166.48122392211405 -7.854063906742889 1.5001503781605268
-165.98052851182197 -7.854671255438273 1.4952108636859223
-165.4798331015299 -7.855133975630698 1.4902478924086078
-164.97913769123784 -7.855452085045647 1.4852617023047545
-164.47844228094576 -7.85562560140859 1.4802525313505284
-163.97774687065368 -7.855654542445011 1.4752206175220943
-163.47705146036162 -7.855538925880383 1.4701661987956192
-162.97635605006954 -7.85527876944019 1.4650895131472714
-162.47566063977746 -7.854874090849901 1.4599907985532135
-161.9749652294854 -7.854324907835 1.4548702929896147
-161.47426981919332 -7.853631238120958 1.4497282344326392
-160.97357440890124 -7.85279309943326 1.4445648608584547
-160.4728789986092 -7.851810509497378 1.4393804102432262
-159.9721835883171 -7.850683486038793 1.4341751205631195
-159.47148817802503 -7.849412046782977 1.4289492297943058
-158.97079276773297 -7.8479962094554185 1.4237029759129476
-158.4700973574409 -7.846435991781579 1.4184365968952053
-157.9694019471488 -7.844731411486949 1.4131503307172573
-157.46870653685676 -7.842882486297002 1.4078444153552605
-156.96801112656468 -7.840889233937217 1.4025190887853853
-156.4673157162726 -7.838751672133066 1.3971745889837976
-155.96662030598054 -7.836469818610034 1.3918111539266633
-155.46592489568846 -7.834043691093594 1.3864290215901474
-154.96522948539638 -7.831473307309221 1.3810284299504165
-154.46453407510432 -7.8287586849823985 1.3756096169836403
-153.96383866481224 -7.8258998418386 1.37017282066598
-153.46314325452016 -7.822896795603306 1.364718278973607
-152.9624478442281 -7.819749564001988 1.3592462298826844
-152.46175243393603 -7.81645816476013 1.3537569113693755
-151.96105702364395 -7.813022615603206 1.3482505614098532
-151.4603616133519 -7.809442934256696 1.34272741798028
-150.9596662030598 -7.805719138446076 1.3371877190568224
-150.45897079276773 -7.801851245896822 1.3316317026156475
-149.95827538247568 -7.7978392743344145 1.3260596066329209
-149.4575799721836 -7.793683241484327 1.3204716690848077
-148.9568845618915 -7.78938316507204 1.3148681279474774
-148.45618915159943 -7.784939062823032 1.3092492211970959
-147.95549374130738 -7.780350952462777 1.3036151868098254
-147.4547983310153 -7.775618851716757 1.2979662627618362
-146.95410292072324 -7.770742778310444 1.2923026870292935
-146.45340751043116 -7.765722749969319 1.2866246975883622
-145.95271210013908 -7.760558784418857 1.280932532415209
-145.452016689847 -7.755250899384539 1.2752264294860034
-144.95132127955495 -7.749799112591841 1.2695066267769077
-144.45062586926286 -7.744203441766238 1.2637733622640888
-143.94993045897078 -7.738463904633212 1.2580268739237133
-143.44923504867873 -7.732580518918235 1.252267399731949
-142.94853963838665 -7.726553302346792 1.2464951776649633
-142.44784422809457 -7.720382272644356 1.2407104456989198
-141.9471488178025 -7.714067447536401 1.2349134418099823
-141.44645340751043 -7.707608844748407 1.2291044039743213
-140.94575799721835 -7.7010064820058535 1.2232835701681017
-140.44506258692627 -7.694260377034219 1.2174511783674904
-139.94436717663422 -7.687370547558977 1.2116074665486523
-139.44367176634213 -7.680337011305609 1.2057526726877585
-138.94297635605005 -7.673159785999591 1.199887034760968
-138.442280945758 -7.6658388893663965 1.1940107907444493
-137.94158553546592 -7.658374339131507 1.1881241786143735
-137.44089012517384 -7.650766153020401 1.1822274363468985
-136.94019471488178 -7.643014348758554 1.1763208019181983
-136.4394993045897 -7.635118944071442 1.1704045133044378
-135.93880389429762 -7.627079956684545 1.1644788084817768
-135.43810848400557 -7.6188974043233415 1.1585439254263916
-134.9374130737135 -7.610571304713304 1.1526001021144394
-134.4367176634214 -7.602101675579915 1.1466475765220923
-133.93602225312935 -7.59348853464865 1.1406865866255134
-133.43532684283727 -7.584731899644986 1.1347173704008713
-132.9346314325452 -7.575831788294403 1.128740165824331
-132.43393602225314 -7.5667882183223725 1.1227552108720593
-131.93324061196105 -7.557601207454379 1.1167627435202194
-131.43254520166897 -7.548270773415895 1.1107630017449834
-130.93184979137692 -7.538796933932403 1.1047562235225146
-130.43115438108484 -7.529179706729375 1.0987426468289778
-129.93045897079276 -7.519419109532292 1.0927225096405417
-129.4297635605007 -7.509515160066631 1.0866960499333713
-128.92906815020862 -7.4994678760578655 1.0806635056836298
-128.42837273991654 -7.48927727523148 1.074625114867491
-127.92767732962449 -7.478943375312946 1.0685811154611164
-127.4269819193324 -7.468466194027743 1.0625317454406729
-126.92628650904032 -7.457845749101351 1.0564772427823252
-126.42559109874827 -7.447082058259246 1.0504178454622422
-125.92489568845619 -7.436175139226906 1.0443537914565886
-125.42420027816411 -7.425125009729799 1.0382853187415313
-124.92350486787205 -7.4139316874934185 1.0322126652932353
-124.42280945757997 -7.402595190243231 1.0261360690878674
-123.92211404728789 -7.391115535704715 1.0200557681015996
-123.42141863699584 -7.379492741603352 1.0139720003105845
-122.92072322670376 -7.3677268256646204 1.0078850036910068
-122.42002781641168 -7.355817805613993 1.0017950162190135
-121.91933240611961 -7.34376569917695 0.9957022758707874
-121.41863699582754 -7.331570524078968 0.9896070206224865
-120.91794158553546 -7.3192322980455184 0.983509488450274
-120.41724617524339 -7.306751038802092 0.9774099173303237
-119.91655076495132 -7.294126764074159 0.9713085452387988
-119.41585535465924 -7.281359491587194 0.9652056101518645
-118.91515994436718 -7.268449239066678 0.9591013500456873
-118.41446453407511 -7.255396024238086 0.9529960028964377
-117.91376912378303 -7.242199864826899 0.9468898066802718
-117.41307371349096 -7.228860778558593 0.9407829993733687
-116.91237830319889 -7.215378783158643 0.9346758189518865
-116.41168289290681 -7.201753896352534 0.9285685033919917
-115.91098748261474 -7.187986135865733 0.9224612906698548
-115.41029207232268 -7.174075519423726 0.916354418761639
-114.9095966620306 -7.1600220647519865 0.9102481256435093
-114.40890125173853 -7.1458257895759925 0.904142649291636
-113.90820584144646 -7.1314867116212195 0.8980382276821823
-113.40751043115438 -7.117004848613151 0.8919350987913133
-112.90681502086231 -7.1023802182772595 0.8858335005952009
-112.40611961057024 -7.087612838339021 0.879733671070005
-111.90542420027816 -7.072702726523916 0.8736358481918975
-111.4047287899861 -7.057649900557427 0.8675402699370418
-110.90403337969401 -7.042454378165013 0.8614471742816028
-110.40333796940195 -7.027116177072182 0.855356799201749
-109.90264255910988 -7.011635315004382 0.8492693826736455
-109.4019471488178 -6.9960118096871025 0.8431851626734608
-108.90125173852573 -6.980245678845824 0.8371043771773545
-108.40055632823366 -6.964336940206023 0.8310272641615024
-107.89986091794158 -6.9482856114931675 0.8249540616020641
-107.39916550764951 -6.932091710432749 0.8188850074752099
-106.89847009735745 -6.9157552547502394 0.8128203397571048
-106.39777468706536 -6.899276262171108 0.8067602964239085
-105.8970792767733 -6.882654750420846 0.8007051154517983
-105.39638386648123 -6.865890737224921 0.7946550348169341
-104.89568845618915 -6.848984240308811 0.7886102924954825
-104.39499304589708 -6.831935277398005 0.7825711264636104
-103.89429763560501 -6.814743866217965 0.7765377746974862
-103.39360222531293 -6.797410024494175 0.770510475173275
-102.89290681502086 -6.779933769952114 0.76448946586714
-102.3922114047288 -6.762315120317259 0.7584749847552497
-101.89151599443672 -6.744554093315083 0.7524672698137727
-101.39082058414465 -6.726650706671075 0.7464665590188722
-100.89012517385257 -6.708604978110698 0.7404730903467149
-100.3894297635605 -6.690416925359434 0.7344871017734678
-99.88873435326843 -6.672086566142768 0.7285088312752974
-99.38803894297635 -6.653613918186169 0.7225385168283707
-98.88734353268428 -6.6349989992151155 0.7165763964088507
-98.38664812239222 -6.6162418269550916 0.7106227079929079
-97.88595271210013 -6.597342419131566 0.7046776895567037
-97.38525730180807 -6.578300793470026 0.6987415790764102
-96.884561891516 -6.559116967695937 0.6928146145281906
-96.38386648122392 -6.539790959534786 0.6868970338882099
-95.88317107093185 -6.520322786712049 0.6809890751326331
-95.38247566063978 -6.500712466953198 0.675090976237634
-94.8817802503477 -6.480960017983714 0.6692029751793707
-94.38108484005564 -6.461065457529079 0.6633253099340151
-93.88038942976357 -6.44102880331476 0.6574582184777287
-93.37969401947149 -6.420850073066239 0.6516019387866783
-92.87899860917942 -6.400529284509004 0.6457567088370377
-92.37830319888734 -6.380066455368516 0.6399227666049632
-91.87760778859527 -6.359461603370265 0.6341003500666285
-91.3769123783032 -6.3387147462397255 0.6282896971981933
-90.87621696801112 -6.317825901702365 0.6224910459758297
-90.37552155771905 -6.296795087483678 0.6167046343757046
-89.87482614742699 -6.275622321309127 0.6109307003739757
-89.3741307371349 -6.254307620904195 0.605169481946817
-88.87343532684284 -6.232851003994364 0.5994212170703916
-88.37273991655077 -6.211252488305105 0.5936861437208718
-87.87204450625869 -6.1895120915619 0.5879644998744153
-87.37134909596662 -6.167629831490219 0.5822565235071873
-86.87065368567455 -6.145605725815548 0.5765624525953685
-86.36995827538247 -6.12343979226336 0.5708825251151064
-85.8692628650904 -6.101132048559135 0.5652169790425818
-85.36856745479834 -6.078682512428353 0.5595660523539563
-84.86787204450626 -6.056091201596482 0.5539299830253912
-84.36717663421419 -6.033358133789006 0.5483090090330587
-83.86648122392211 -6.010483326731409 0.5427033683531273
-83.36578581363004 -5.987466798149152 0.5371132989617566
-82.86509040333797 -5.9643085657677215 0.5315390388351118
-82.36439499304589 -5.941008647312605 0.5259808259493683
-81.86369958275382 -5.917567060509262 0.520438898280686
-81.36300417246176 -5.893983823083181 0.514913493805228
-80.86230876216968 -5.870258952759828 0.5094048504991646
-80.36161335187761 -5.846392467264705 0.5039132063386698
-79.86091794158554 -5.822384384323259 0.498438799299896
-79.36022253129346 -5.798234721660991 0.49298186735901717
-78.85952712100139 -5.773943497003364 0.4875426484921983
-78.35883171070932 -5.7495107280758635 0.48212138067560795
-77.85813630041724 -5.724936432603959 0.47671830188540754
-77.35744089012518 -5.700220628313145 0.4713336500977674
-76.85674547983311 -5.675363332928873 0.46596766328885075
-76.35605006954103 -5.65036456417665 0.46062057943482615
-75.85535465924896 -5.625224339781925 0.4552926365118568
-75.35465924895689 -5.599942677470198 0.4499840724961184
-74.85396383866481 -5.574519594966931 0.44469512536376343
-74.35326842837274 -5.548955109997619 0.4394260330909676
-73.85257301808066 -5.523249240287706 0.4341770336538924
-73.3518776077886 -5.497402003562717 0.4289483650287098
-72.85118219749653 -5.471413417548087 0.4237402651915796
-72.35048678720445 -5.445283499969316 0.41855297211867026
-71.84979137691238 -5.419012268551873 0.41338672378615215
-71.34909596662031 -5.392599741021245 0.40824175817018493
-70.84840055632823 -5.366045935102898 0.4031183132469389
-70.34770514603616 -5.339350868522322 0.39801662699258267
-69.8470097357441 -5.312514559004972 0.39293693738327584
-69.34631432545201 -5.285537024276353 0.38787948239518877
-68.84561891515995 -5.2584182820619265 0.38284450000449
-68.34492350486788 -5.231158350087179 0.3778322281873392
-67.8442280945758 -5.20375724607757 0.37284290491990313
-67.34353268428373 -5.176214987758604 0.36787676817835924
-66.84283727399166 -5.148531592855731 0.36293405593886185
-66.34214186369958 -5.1207070790944496 0.3580150061775831
-65.84144645340751 -5.092741464200222 0.35311985687068614
-65.34075104311543 -5.064634765898541 0.3482488459943378
-64.84005563282336 -5.036387001914866 0.3434022115247084
-64.3393602225313 -5.007998189974691 0.3385801914379576
-63.838664812239216 -4.979468347803481 0.3337830237102557
-63.33796940194715 -4.95079749312673 0.3290109463177713
-62.83727399165508 -4.921985643669897 0.324264197236664
-62.336578581363 -4.893032817158469 0.3195430144431024
-61.83588317107093 -4.863939031317917 0.31484763591325504
-61.335187760778865 -4.834704303873734 0.31017829962329224
-60.834492350486784 -4.805328652551376 0.3055352435493719
-60.333796940194716 -4.7758120950763345 0.30091870566766254
-59.83310152990265 -4.746154649174079 0.2963289239543345
-59.33240611961057 -4.716356332570102 0.29176613638554927
-58.8317107093185 -4.68641716298986 0.28723058093747533
-58.33101529902643 -4.656337158158847 0.2827224955862777
-57.83031988873435 -4.62611633580253 0.27824211830812495
-57.329624478442284 -4.595754713646398 0.27378968707918383
-56.82892906815022 -4.5652523094159125 0.269365439875614
-56.328233657858135 -4.534609140836567 0.26496961467358937
-55.82753824756607 -4.503825225633827 0.2606024494492749
-55.326842837273986 -4.47290058153318 0.2562641821788356
-54.82614742698192 -4.441835226260094 0.2519550508384347
-54.32545201668985 -4.41062917754005 0.24767529340424077
-53.82475660639777 -4.379282453098524 0.2434251478524223
-53.3240611961057 -4.347795070661006 0.2392048521591461
-52.823365785813635 -4.316167047952954 0.23501464430057362
-52.322670375521554 -4.284398402699862 0.23085476225287693
-51.82197496522949 -4.252489152627193 0.22672544399221395
-51.321279554937405 -4.220439315460434 0.22262692749475677
-50.82058414464535 -4.188248908925056 0.21855945073667393
-50.31988873435327 -4.155917950746554 0.2145232516941269
-49.81919332406119 -4.123446458650376 0.21051856834328952
-49.318497913769136 -4.0908344503620295 0.20654563866031617
-48.817802503477054 -4.058081943606966 0.2026047006213807
-48.31710709318497 -4.02518895611068 0.19869599220264633
-47.81641168289292 -3.9921555055986406 0.19481975138028518
-47.31571627260084 -3.9589816097963375 0.1909762161304569
-46.81502086230876 -3.925667286429226 0.18716562442932827
-46.3143254520167 -3.8922125532228105 0.18338821425307317
-45.81363004172462 -3.858617427902546 0.17964422357784948
-45.31293463143254 -3.8248819281939266 0.17593389037982754
-44.81223922114049 -3.791006071822414 0.17225745263516878
-44.311543810848406 -3.756989876513499 0.16861514832004532
-43.810848400556324 -3.722833359992647 0.16500721541062036
-43.31015299026427 -3.6885365399853516 0.16143389188306423
-42.80945757997219 -3.654099434217068 0.15789541571353483
-42.30876216968011 -3.6195220604132974 0.15439202487820425
-41.808066759388026 -3.584804436299498 0.15092395735323927
-41.30737134909597 -3.5499465796011673 0.14749145111480666
-40.80667593880389 -3.514948508043764 0.14409474413906964
-40.30598052851181 -3.479810239352771 0.14073407440219676
-39.80528511821976 -3.444531791253672 0.13740967988035835
-39.304589707927676 -3.409113181471943 0.13412179854970874
-38.803894297635594 -3.373554427733046 0.13087066838642003
-38.30319888734354 -3.337855547762489 0.12765652736666788
-37.80250347705146 -3.3020165592857165 0.1244796134666013
-37.30180806675938 -3.266037480028219 0.1213401646623995
-36.801112656467325 -3.22991832771549 0.11823841893022569
-36.30041724617524 -3.1936591200729847 0.11517461424624664
-35.79972183588316 -3.157259874826183 0.11214898858662203
-35.29902642559111 -3.1207206097005855 0.10916177992752751
-34.79833101529903 -3.0840413424216333 0.10621322624512275
-34.297635605006946 -3.0472220907148273 0.10330356551557984
-33.79694019471489 -3.0102628723056544 0.10043303571506024
-33.29624478442281 -2.973163704919555 0.09760187481973426
-32.79554937413073 -2.935924606282045 0.09481032080576157
-32.294853963838676 -2.898545594118593 0.09205861164931428
-31.794158553546595 -2.8610266861546574 0.08934698532655738
-31.293463143254513 -2.8233679001157252 0.08667567981365765
-30.79276773296246 -2.7855692537272905 0.08404493308677652
-30.29207232267038 -2.747630764714815 0.08145498312208788
-29.791376912378297 -2.7095524508037716 0.07890606789575494
-29.290681502086244 -2.6713343297196506 0.07639842538394093
-28.789986091794162 -2.632976419187921 0.07393229356281439
-28.28929068150208 -2.594478736934052 0.07150791040854387
-27.788595271210028 -2.5558413006835554 0.06912551389729438
-27.287899860917946 -2.5170641281618575 0.06678534200522557
-26.787204450625865 -2.4781472370944844 0.06448763270851487
-26.28650904033381 -2.439090645206891 0.06223262398332552
-25.78581363004173 -2.399894370224553 0.06002055380581539
-25.28511821974965 -2.360558429872947 0.057851660152160145
-24.784422809457595 -2.321082841877571 0.05572618099852478
-24.283727399165514 -2.2814676239638576 0.0536443543210654
-23.783031988873432 -2.2417127938573405 0.051606418095963
-23.28233657858135 -2.201818369283446 0.04961261029937547
-22.781641168289298 -2.1617843679676927 0.047663168907471354
-22.280945757997216 -2.121610807635536 0.0457583318964192
-21.780250347705135 -2.0812977060124584 0.043898337242376906
-21.27955493741308 -2.040845080823937 0.042083422921521896
-20.778859527121 -2.0002529497954473 0.040313826910010286
-20.27816411682892 -1.959521330652466 0.038589787184015956
-19.777468706536865 -1.918650241120483 0.03691154171970035
-19.276773296244784 -1.8776396989249537 0.03527932849323556
-18.776077885952702 -1.8364897217913754 0.033693385480777716
-18.27538247566065 -1.795200327445217 0.032153950658506014
-17.774687065368568 -1.753771533611955 0.030661262002574796
-17.273991655076486 -1.7122033580170655 0.029215557489161492
-16.773296244784433 -1.6704958183860388 0.027817075094422217
-16.27260083449235 -1.628648932444344 0.02646605279452552
-15.77190542420027 -1.5866627179174575 0.0251627285656435
-15.271210013908217 -1.5445371925308482 0.02390734038393938
-14.770514603616135 -1.5022723740099995 0.022700126225576378
-14.269819193324054 -1.4598682800804017 0.02154132406672482
-13.769123783032 -1.417324928467524 0.02043117188354615
-13.268428372739919 -1.3746423368968284 0.019369907652208918
-12.767732962447838 -1.3318205230938194 0.018357769348887
-12.267037552155784 -1.288859504783952 0.01739499494973651
-11.766342141863703 -1.2457592996927165 0.01648182243092422
-11.265646731571621 -1.202519925545582 0.015618489768620458
-10.764951321279568 -1.1591414000680462 0.014805234938991996
-10.264255910987487 -1.1156237409855496 0.014042295918200276
-9.763560500695405 -1.0719824756606393 0.013324255910987475
-9.262865090403352 -1.0285115438108496 0.012651210013908223
-8.76216968011127 -0.9857271210013913 0.0120203337969402
-8.261474269819189 -0.9432299026425588 0.011461015299026421
