Polar data for NACA 0012 at Re = 1931379.3103448278
Alpha (deg) Cl Cd
-180.0 -11.161825528007341 2.0709846475777085
-179.49930458970792 -11.156994883181675 2.065522487491276
-178.99860917941587 -11.151952382624032 2.0600215171373084
-178.49791376912378 -11.14669860740231 2.0544820499344376
-177.9972183588317 -11.141234138584402 2.048904399301296
-177.49652294853965 -11.135559557238196 2.0432888786565138
-176.99582753824757 -11.129675444431587 2.037635801418721
-176.4951321279555 -11.12358238123247 2.0319454810065527
-175.99443671766343 -11.117280948708732 2.0262182308386394
-175.49374130737135 -11.110771727928277 2.0204543643336117
-174.99304589707927 -11.104055299958993 2.0146541949101047
-174.49235048678722 -11.097132245868764 2.008818035986747
-173.99165507649514 -11.090003146725493 2.0029462009821732
-173.49095966620305 -11.082668583597076 1.9970390033150118
-172.990264255911 -11.075129137551386 1.9910967564038953
-172.48956884561892 -11.067385389656337 1.9851197736674586
-171.98887343532684 -11.059437920979818 1.9791083685243316
-171.48817802503476 -11.05128731258971 1.9730628543931439
-170.9874826147427 -11.042934145553918 1.9669835446925341
-170.48678720445062 -11.034379000940326 1.9608707528411213
-169.98609179415854 -11.025622459816837 1.9547247922575512
-169.4853963838665 -11.01666510325133 1.9485459763604482
-168.9847009735744 -11.007507512311715 1.9423346185684456
-168.48400556328232 -10.998150268065878 1.9360910323001765
-167.98331015299027 -10.988593951581706 1.929815530974269
-167.4826147426982 -10.978839143927093 1.9235084280093582
-166.9819193324061 -10.968886426169938 1.9171700368240772
-166.48122392211405 -10.958736379378138 1.910800670837054
-165.98052851182197 -10.948389584619573 1.9044006434669218
-165.4798331015299 -10.937846622962137 1.897970268132314
-164.97913769123784 -10.927108075473726 1.8915098582518586
-164.47844228094576 -10.916174523222239 1.8850197272441922
-163.97774687065368 -10.905046547275564 1.8785001885279429
-163.47705146036162 -10.893724728701585 1.871951555521742
-162.97635605006954 -10.882209648568217 1.8653741416442267
-162.47566063977746 -10.87050188794333 1.8587682603140245
-161.9749652294854 -10.858602027894836 1.852134224949769
-161.47426981919332 -10.846510649490604 1.845472348970088
-160.97357440890124 -10.83422833379855 1.8387829457936182
-160.4728789986092 -10.821755661886556 1.8320663288389896
-159.9721835883171 -10.809093214822518 1.8253228115248317
-159.47148817802503 -10.796241573674326 1.8185527072697814
-158.97079276773297 -10.783201319509882 1.8117563294924683
-158.4700973574409 -10.769973033397065 1.8049339916115206
-157.9694019471488 -10.75655729640377 1.7980860070455749
-157.46870653685676 -10.742954689597894 1.7912126892132592
-156.96801112656468 -10.729165794047336 1.7843143515332103
-156.4673157162726 -10.715191190819986 1.7773913074240544
-155.96662030598054 -10.701031460983728 1.7704438703044283
-155.46592489568846 -10.68668718560646 1.76347235359296
-154.96522948539638 -10.67215894575607 1.7564770707082809
-154.46453407510432 -10.657447322500463 1.7494583350690278
-153.96383866481224 -10.642552896907528 1.7424164600938288
-153.46314325452016 -10.627476250045149 1.7353517592013152
-152.9624478442281 -10.612217962981227 1.7282645458101205
-152.46175243393603 -10.59677861678366 1.7211551333388742
-151.96105702364395 -10.581158792520327 1.7140238352062114
-151.4603616133519 -10.56535907125912 1.7068709648307636
-150.9596662030598 -10.549380034067951 1.6996968356311588
-150.45897079276773 -10.53322226201469 1.6925017610260302
-149.95827538247568 -10.516886336167254 1.6852860544340165
-149.4575799721836 -10.50037283759351 1.6780500292737366
-148.9568845618915 -10.483682347361366 1.670793998963831
-148.45618915159943 -10.466815446538718 1.6635182769229346
-147.95549374130738 -10.449772716193447 1.6562231765696702
-147.4547983310153 -10.43255473739346 1.648909011322678
-146.95410292072324 -10.41516209120664 1.6415760946005808
-146.45340751043116 -10.397595358700876 1.634224739822017
-145.95271210013908 -10.379855120944065 1.6268552604056166
-145.452016689847 -10.36194195900411 1.6194679697700143
-144.95132127955495 -10.343856453948899 1.6120631813338382
-144.45062586926286 -10.325599186846318 1.6046412085157198
-143.94993045897078 -10.307170738764253 1.5972023647342906
-143.44923504867873 -10.28857169077061 1.5897469634081856
-142.94853963838665 -10.269802623933288 1.5822753179560363
-142.44784422809457 -10.25086411932017 1.5747877417964742
-141.9471488178025 -10.23175675799914 1.5672845483481272
-141.44645340751043 -10.212481121038103 1.5597660510296287
-140.94575799721835 -10.193037789504949 1.552232563259612
-140.44506258692627 -10.173427344467576 1.54468439845671
-139.94436717663422 -10.153650366993865 1.5371218700395546
-139.44367176634213 -10.133707438151724 1.5295452914267789
-138.94297635605005 -10.11359913900904 1.521954976037009
-138.442280945758 -10.093326050633692 1.5143512372888766
-137.94158553546592 -10.07288875409359 1.5067343886010218
-137.44089012517384 -10.052287830456628 1.4991047433920675
-136.94019471488178 -10.031523860790692 1.491462615080652
-136.4394993045897 -10.01059742616367 1.4838083170854035
-135.93880389429762 -9.989509107643457 1.4761421628249551
-135.43810848400557 -9.968259486297946 1.4684644657179384
-134.9374130737135 -9.946849143195045 1.4607755391829866
-134.4367176634214 -9.925278659402615 1.4530756966387242
-133.93602225312935 -9.90354861598859 1.4453652515037931
-133.43532684283727 -9.881659594020824 1.4376445171968215
-132.9346314325452 -9.859612174567232 1.429913807136439
-132.43393602225314 -9.8374069386957 1.422173434741277
-131.93324061196105 -9.81504446747413 1.4144237134299726
-131.43254520166897 -9.792525341970403 1.40666495662115
-130.93184979137692 -9.769850143252427 1.3988974777334495
-130.43115438108484 -9.747019452388074 1.3911215901854939
-129.93045897079276 -9.724033850445245 1.3833376073959234
-129.4297635605007 -9.700893918491843 1.375545842783366
-128.92906815020862 -9.67760023759574 1.3677466097664515
-128.42837273991654 -9.65415338882486 1.3599402217638183
-127.92767732962449 -9.630553953247066 1.352126992194091
-127.4269819193324 -9.606802511930262 1.344307234475901
-126.92628650904032 -9.58289964594234 1.3364812620278852
-126.42559109874827 -9.558845936351204 1.3286493882686785
-125.92489568845619 -9.534641964224726 1.3208119266169036
-125.42420027816411 -9.510288310630813 1.3129691904911938
-124.92350486787205 -9.485785556637346 1.3051214933101858
-124.42280945757997 -9.46113428331224 1.2972691484925076
-123.92211404728789 -9.43633507172337 1.2894124694567997
-123.42141863699584 -9.411388502938642 1.2815517696216774
-122.92072322670376 -9.386295158025938 1.2736873624057865
-122.42002781641168 -9.361055618053143 1.2658195612277532
-121.91933240611961 -9.335670464088167 1.2579486795062107
-121.41863699582754 -9.31014027719889 1.2500750306597905
-120.91794158553546 -9.284465638453213 1.2421989281071188
-120.41724617524339 -9.25864712891903 1.2343206852668414
-119.91655076495132 -9.232685329664221 1.2264406155575753
-119.41585535465924 -9.206580821756695 1.218559032397963
-118.91515994436718 -9.18033418626434 1.2106762492066303
-118.41446453407511 -9.15394600425504 1.202792579402209
-117.91376912378303 -9.1274168567967 1.194908336403334
-117.41307371349096 -9.100747324957212 1.1870238336286367
-116.91237830319889 -9.073937989804449 1.179139384496747
-116.41168289290681 -9.046989432406335 1.1712553024262964
-115.91098748261474 -9.019902233830749 1.163371900835918
-115.41029207232268 -8.99267697514557 1.1554894931442452
-114.9095966620306 -8.965314237418703 1.147608392769906
-114.40890125173853 -8.937814601718046 1.1397289131315351
-113.90820584144646 -8.910178649111486 1.1318513676477626
-113.40751043115438 -8.882406960666913 1.1239760697372216
-112.90681502086231 -8.854500117452226 1.1161033328185455
-112.40611961057024 -8.826458700535312 1.108233470310362
-111.90542420027816 -8.798283290984074 1.1003667956313046
-111.4047287899861 -8.769974469866398 1.0925036222000064
-110.90403337969401 -8.741532818250171 1.084644263435099
-110.40333796940195 -8.712958917203295 1.0767890327552139
-109.90264255910988 -8.684253347793657 1.0689382435789807
-109.4019471488178 -8.655416691089144 1.061092209325031
-108.90125173852573 -8.626449528157671 1.0532512434120034
-108.40055632823366 -8.59735244006712 1.0454156592585222
-107.89986091794158 -8.568126007885368 1.037585770283219
-107.39916550764951 -8.538770812680333 1.0297618899047358
-106.89847009735745 -8.50928743551988 1.0219443315416936
-106.39777468706536 -8.479676457471918 1.0141334086127256
-105.8970792767733 -8.449938459604361 1.0063294345364722
-105.39638386648123 -8.420074022985055 0.9985327227315524
-104.89568845618915 -8.39008372868193 0.9907435866166048
-104.39499304589708 -8.359968157762871 0.9829623396102627
-103.89429763560501 -8.32972789129576 0.9751892951311594
-103.39360222531293 -8.299363510348499 0.9674247665979174
-102.89290681502086 -8.268875595988973 0.9596690674291755
-102.3922114047288 -8.238264729285092 0.951922511043565
-101.89151599443672 -8.207531491304714 0.9441854108597174
-101.39082058414465 -8.17667646311579 0.9364580802962679
-100.89012517385257 -8.14570022578615 0.9287408327718389
-100.3894297635605 -8.114603360383718 0.9210339817050675
-99.88873435326843 -8.083386447976395 0.913337840514592
-99.38803894297635 -8.05205006963206 0.9056527226190334
-98.88734353268428 -8.0205948064186 0.8979789414370285
-98.38664812239222 -7.989021239403926 0.8903168103872123
-97.88595271210013 -7.957329949655908 0.8826666428882128
-97.38525730180807 -7.925521518242463 0.8750287523586597
-96.884561891516 -7.8935965262314705 0.8674034522171916
-96.38386648122392 -7.861555554690825 0.8597910558824293
-95.88317107093185 -7.8293991846884206 0.852191876773015
-95.38247566063978 -7.797127997292152 0.8446062283075784
-94.8817802503477 -7.764742573569898 0.8370344239047474
-94.38108484005564 -7.732243494589576 0.829476776983157
-93.88038942976357 -7.699631341419065 0.8219336009614406
-93.37969401947149 -7.666906695126245 0.8144052092582226
-92.87899860917942 -7.634070136779031 0.8068919152921397
-92.37830319888734 -7.6011222474453115 0.7993940324818252
-91.87760778859527 -7.568063608192973 0.7919118742459124
-91.3769123783032 -7.534894800089909 0.7844457540030292
-90.87621696801112 -7.501616404204015 0.7769959851718053
-90.37552155771905 -7.468229001603185 0.7695628811708795
-89.87482614742699 -7.434733173355306 0.7621467554188759
-89.3741307371349 -7.401129500528264 0.7547479213344332
-88.87343532684284 -7.367418564189976 0.7473666923361795
-88.37273991655077 -7.333600945408315 0.740003381842746
-87.87204450625869 -7.2996772252512026 0.732658303272768
-87.37134909596662 -7.26564798478647 0.7253317700448716
-86.87065368567455 -7.2315138050820815 0.7180240955776971
-86.36995827538247 -7.197275267205883 0.7107355932898636
-85.8692628650904 -7.162932952225781 0.7034665766000185
-85.36856745479834 -7.128487441209686 0.6962173589267828
-84.86787204450626 -7.093939315225449 0.6889882536887879
-84.36717663421419 -7.059289155341006 0.6817795743046724
-83.86648122392211 -7.024537542624231 0.674591634193066
-83.36578581363004 -6.989685058143011 0.6674247467725984
-82.86509040333797 -6.954732282965247 0.660279225461903
-82.36439499304589 -6.91967979815884 0.6531553836796093
-81.86369958275382 -6.884528184791656 0.646053534844349
-81.36300417246176 -6.849278023931618 0.6389739923747553
-80.86230876216968 -6.813929896646592 0.6319170696894596
-80.36161335187761 -6.778484384004508 0.6248830802071006
-79.86091794158554 -6.742942067073224 0.6178723373462991
-79.36022253129346 -6.707303526920634 0.6108851545256884
-78.85952712100139 -6.671569344614668 0.6039218451639106
-78.35883171070932 -6.635740101223171 0.596982722679583
-77.85813630041724 -6.599816377814052 0.5900681004913477
-77.35744089012518 -6.563798755455239 0.5831782920178381
-76.85674547983311 -6.527687815214549 0.5763136106776785
-76.35605006954103 -6.491484138159955 0.5694743698895022
-75.85535465924896 -6.455188305359315 0.5626608830719424
-75.35465924895689 -6.4188008978805025 0.5558734636436307
-74.85396383866481 -6.3823224967914465 0.5491124250232002
-74.35326842837274 -6.3457536831600345 0.5423780806292844
-73.85257301808066 -6.309095038054125 0.5356707438805057
-73.3518776077886 -6.272347142541649 0.5289907281955153
-72.85118219749653 -6.235510577690477 0.5223383469929179
-72.35048678720445 -6.19858592456852 0.5157139136913682
-71.84979137691238 -6.161573764243649 0.5091177417094852
-71.34909596662031 -6.124474677783767 0.5025501444659093
-70.84840055632823 -6.087289246256767 0.4960114353792666
-70.34770514603616 -6.050018050730565 0.4895019278681958
-69.8470097357441 -6.012661672273006 0.48302193535131055
-69.34631432545201 -5.9752206919520185 0.47657177124726546
-68.84561891515995 -5.937695690835491 0.4701517489746796
-68.34492350486788 -5.9000872499913095 0.46376218195218977
-67.8442280945758 -5.862395950487362 0.4574033835984186
-67.34353268428373 -5.8246223733915565 0.45107566733201354
-66.84283727399166 -5.78676709977178 0.4447793465715937
-66.34214186369958 -5.7488307106959065 0.4385147347357923
-65.84144645340751 -5.71081378723185 0.43228214524324793
-65.34075104311543 -5.672716910447499 0.42608189151258324
-64.84005563282336 -5.634540661410747 0.4199142869624404
-64.3393602225313 -5.596285621189488 0.41377964501144193
-63.838664812239216 -5.557952370851603 0.4076782790782265
-63.33796940194715 -5.519541491465014 0.40161050258142206
-62.83727399165508 -5.4810535640975795 0.39557662893966006
-62.336578581363 -5.442489169817194 0.389576971571572
-61.83588317107093 -5.403848889691781 0.38361184389579295
-61.335187760778865 -5.365133304789219 0.37768155933095615
-60.834492350486784 -5.326342996177382 0.3717864312956878
-60.333796940194716 -5.287478544924192 0.3659267732086211
-59.83310152990265 -5.24854053209753 0.3601028984883894
-59.33240611961057 -5.209529538765275 0.3543151205536259
-58.8317107093185 -5.170446145995336 0.3485637528229586
-58.33101529902643 -5.131290934855579 0.3428491087150154
-57.83031988873435 -5.092064486413968 0.337171501648442
-57.329624478442284 -5.052767381738307 0.3315312450418664
-56.82892906815022 -5.013400201896553 0.3259286523139022
-56.328233657858135 -4.973963527956571 0.32036403688320236
-55.82753824756607 -4.93445794098625 0.31483771216839473
-55.326842837273986 -4.894884022053497 0.3093499915881073
-54.82614742698192 -4.8552423522262 0.3039011885609715
-54.32545201668985 -4.815533512572238 0.29849161650561173
-53.82475660639777 -4.775758084159514 0.2931215888406773
-53.3240611961057 -4.735916648055949 0.287791418984789
-52.823365785813635 -4.696009785329388 0.2825014203565819
-52.322670375521554 -4.6560380770477545 0.27725190637468744
-51.82197496522949 -4.616002104278928 0.2720431904577265
-51.321279554937405 -4.575902448090809 0.2668755860243519
-50.82058414464535 -4.535739689551272 0.2617494064931809
-50.31988873435327 -4.495514409728252 0.25666496528284855
-49.81919332406119 -4.4552271896896025 0.2516225758119899
-49.318497913769136 -4.414878610503245 0.24662255149923284
-48.817802503477054 -4.374469253237032 0.24166520576319828
-48.31710709318497 -4.333999698958892 0.23675085202254254
-47.81641168289292 -4.293470528736699 0.23187980369587935
-47.31571627260084 -4.252882323638368 0.22705237420185442
-46.81502086230876 -4.212235664731758 0.22226887695907793
-46.3143254520167 -4.171531133084792 0.21752962538619913
-45.81363004172462 -4.1307693097653635 0.21283493290184952
-45.31293463143254 -4.089950775841339 0.20818511292465702
-44.81223922114049 -4.04907611238064 0.20358047887325315
-44.311543810848406 -4.008145900451134 0.19902134416626227
-43.810848400556324 -3.967160721120714 0.1945080222223301
-43.31015299026427 -3.9261211554573032 0.19004082646008458
-42.80945757997219 -3.8850277845287673 0.18562007029815009
-42.30876216968011 -3.8438811894030147 0.18124606715516167
-41.808066759388026 -3.8026819511479255 0.17691913044975793
-41.30737134909597 -3.761430650831408 0.1726395736005597
-40.80667593880389 -3.7201278695213214 0.16840771002620913
-40.30598052851181 -3.678774188285595 0.1642238531453306
-39.80528511821976 -3.63737018819213 0.16008831637656984
-39.304589707927676 -3.5959164503087786 0.156001413138537
-38.803894297635594 -3.5544135557034418 0.15196345684987778
-38.30319888734354 -3.512862085444042 0.14797476092921658
-37.80250347705146 -3.471262620598446 0.14403563879519554
-37.30180806675938 -3.429615742234568 0.1401464038664355
-36.801112656467325 -3.3879220314202607 0.13630736956157863
-36.30041724617524 -3.3461820692234676 0.13251884929924573
-35.79972183588316 -3.3043964367120333 0.12878115649807187
-35.29902642559111 -3.262565714953909 0.12509460457669563
-34.79833101529903 -3.2206904850169247 0.12145950695374141
-34.297635605006946 -3.1787713279690175 0.11787617704784781
-33.79694019471489 -3.1368088248780674 0.11434492827764275
-33.29624478442281 -3.0948035568119474 0.1108660740617542
-32.79554937413073 -3.0527561048385943 0.10743992781882072
-32.294853963838676 -3.0106670500258526 0.10406680296746673
-31.794158553546595 -2.968536973441645 0.10074701292633437
-31.293463143254513 -2.9263664561538514 0.09748087111405512
-30.79276773296246 -2.8841560792303733 0.09426869094923918
-30.29207232267038 -2.841906423739098 0.09111078585055354
-29.791376912378297 -2.7996180707479192 0.0880074692365942
-29.290681502086244 -2.7572916013247317 0.08495905452601393
-28.789986091794162 -2.7149275965374295 0.08196585513743715
-28.28929068150208 -2.6725266374538927 0.07902818448950244
-27.788595271210028 -2.630089305142044 0.0761463560008484
-27.287899860917946 -2.5876161806697207 0.07332068309007811
-26.787204450625865 -2.545107845104888 0.07055147917585147
-26.28650904033381 -2.5025648795154263 0.06783905767679288
-25.78581363004173 -2.4599878649691584 0.06518373201152672
-25.28511821974965 -2.4173773825340357 0.06258581559869514
-24.784422809457595 -2.374734013277938 0.060045621856918974
-24.283727399165514 -2.332058338268774 0.05756346420482972
-23.783031988873432 -2.289350938574409 0.05513965606108018
-23.28233657858135 -2.246612395262752 0.05277451084427698
-22.781641168289298 -2.203843289401669 0.05046834197306227
-22.280945757997216 -2.1610442020591103 0.04822146286607465
-21.780250347705135 -2.118215714302914 0.0460341869419314
-21.27955493741308 -2.0753584072010165 0.04390682761927467
-20.778859527121 -2.0324728618212555 0.04183969831673595
-20.27816411682892 -1.989559659231582 0.039833112452939634
-19.777468706536865 -1.9466193804998477 0.03788738344652076
-19.276773296244784 -1.903652606693961 0.03600282471612504
-18.776077885952702 -1.8606599188818302 0.034179749680359084
-18.27538247566065 -1.8176418981313214 0.03241847175787216
-17.774687065368568 -1.7745991255103428 0.0307193043672922
-17.273991655076486 -1.7315321820867746 0.0290825609272507
-16.773296244784433 -1.6884416489285252 0.027508554856379153
-16.27260083449235 -1.6453281071034747 0.02599759957330905
-15.77190542420027 -1.6021921376795314 0.024550008496671882
-15.271210013908217 -1.5590343217245755 0.023166095045102697
-14.770514603616135 -1.515855240306501 0.021846172637222327
-14.269819193324054 -1.4726554744932026 0.020590554691683582
-13.769123783032 -1.429435605352574 0.019399554627096638
-13.268428372739919 -1.38619621395251 0.018273485862103644
-12.767732962447838 -1.34293788136089 0.0172126618153432
-12.267037552155784 -1.2996611886456515 0.016217395905432586
-11.766342141863703 -1.256366716874603 0.015288001550999741
-11.265646731571621 -1.2130550471157244 0.014424792170704581
-10.764951321279568 -1.1697267604368529 0.013628081183153729
-10.264255910987487 -1.126382437905911 0.012898182006985781
-9.763560500695405 -1.0830243393602221 0.012227899860917935
-9.262865090403352 -1.039616689847011 0.011638122392211419
-8.76216968011127 -0.9969173852573021 0.011108386648122397
-8.261474269819189 -0.9471401947148812 0.010552851182197492
