Polar data for NACA 0012 at Re = 1588275.8620689656
Alpha (deg) Cl Cd
-180.0 -8.870812174082467 1.76949915184907
-179.49930458970792 -8.872842536366583 1.7648131111994383
-178.99860917941587 -8.874706684292645 1.7600942951989031
-178.49791376912378 -8.87640478642662 1.7553429695875389
-177.9972183588317 -8.877937011334499 1.7505594001054172
-177.49652294853965 -8.87930352758225 1.7457438524926143
-176.99582753824757 -8.880504503735862 1.740896592489201
-176.4951321279555 -8.881540108361312 1.7360178858352517
-175.99443671766343 -8.882410510024576 1.7311079982708408
-175.49374130737135 -8.883115877291637 1.7261671955360365
-174.99304589707927 -8.883656378728473 1.721195743370921
-174.49235048678722 -8.884032182901066 1.7161939075155592
-173.99165507649514 -8.88424345837539 1.7111619537100315
-173.49095966620305 -8.884290373717432 1.7061001476944027
-172.990264255911 -8.884173097493164 1.7010087552087523
-172.48956884561892 -8.883891798268577 1.695888041993153
-171.98887343532684 -8.883446644609641 1.6907382737876784
-171.48817802503476 -8.882837805082332 1.6855597163323983
-170.9874826147427 -8.882065448252643 1.6803526353673908
-170.48678720445062 -8.88112974268654 1.6751172966327248
-169.98609179415854 -8.880030856950013 1.6698539658684775
-169.4853963838665 -8.878768959609031 1.6645629088147187
-168.9847009735744 -8.877344219229583 1.6592443912115238
-168.48400556328232 -8.875756804377646 1.6538986787989662
-167.98331015299027 -8.8740068836192 1.6485260373171178
-167.4826147426982 -8.872094625520223 1.6431267325060528
-166.9819193324061 -8.870020198646694 1.637701030105844
-166.48122392211405 -8.867783771564593 1.6322491958565655
-165.98052851182197 -8.865385512839902 1.626771495498292
-165.4798331015299 -8.8628255910386 1.6212681947710923
-164.97913769123784 -8.860104174726658 1.615739559415041
-164.47844228094576 -8.857221432470071 1.610185855170215
-163.97774687065368 -8.854177532834806 1.6046073477766853
-163.47705146036162 -8.850972644386845 1.5990043029745244
-162.97635605006954 -8.847606935692173 1.5933769865038068
-162.47566063977746 -8.844080575316768 1.5877256641046067
-161.9749652294854 -8.840393731826607 1.582050601516996
-161.47426981919332 -8.836546573787667 1.5763520644810463
-160.97357440890124 -8.832539269765936 1.5706303187368347
-160.4728789986092 -8.828371988327385 1.564885630024433
-159.9721835883171 -8.824044898037998 1.5591182640839127
-159.47148817802503 -8.819558167463752 1.5533284866553485
-158.97079276773297 -8.814911965170632 1.5475165634788155
-158.4700973574409 -8.81010645972461 1.5416827602943828
-157.9694019471488 -8.805141819691672 1.5358273428421274
-157.46870653685676 -8.80001821363779 1.5299505768621193
-156.96801112656468 -8.794735810128957 1.5240527280944356
-156.4673157162726 -8.789294777731142 1.518134062279147
-155.96662030598054 -8.783695285010323 1.512194845156328
-155.46592489568846 -8.777937500532486 1.506235342466053
-154.96522948539638 -8.772021592863604 1.5002558199483902
-154.46453407510432 -8.765947730569662 1.4942565433434192
-153.96383866481224 -8.75971608221664 1.4882377783912082
-153.46314325452016 -8.75332681637052 1.482199790831836
-152.9624478442281 -8.746780101597269 1.4761428464053727
-152.46175243393603 -8.740076106462878 1.47006721085189
-151.96105702364395 -8.733214999533326 1.4639731499114612
-151.4603616133519 -8.72619694937458 1.4578609293241653
-150.9596662030598 -8.719022124552643 1.4517308148300687
-150.45897079276773 -8.711690693633473 1.4455830721692484
-149.95827538247568 -8.704202825183062 1.439417967081778
-149.4575799721836 -8.69655868776738 1.4332357653077272
-148.9568845618915 -8.688758449952415 1.4270367325871733
-148.45618915159943 -8.680802280304144 1.420821134660188
-147.95549374130738 -8.672690347388544 1.4145892372668447
-147.4547983310153 -8.664422819771596 1.408341306147217
-146.95410292072324 -8.655999866019288 1.4020776070413765
-146.45340751043116 -8.647421654697586 1.3957984056893986
-145.95271210013908 -8.638688354372471 1.389503967831355
-145.452016689847 -8.629800133609931 1.3831945592073227
-144.95132127955495 -8.620757160975947 1.37687044555737
-144.45062586926286 -8.611559605036485 1.3705318926215702
-143.94993045897078 -8.602207634357528 1.3641791661400022
-143.44923504867873 -8.592701417505074 1.357812531852736
-142.94853963838665 -8.58304112304508 1.3514322554998452
-142.44784422809457 -8.573226919543538 1.3450386028214032
-141.9471488178025 -8.563258975566422 1.338631839557478
-141.44645340751043 -8.553137459679713 1.3322122314481488
-140.94575799721835 -8.542862540449393 1.3257800442334906
-140.44506258692627 -8.53243438644144 1.3193355436535716
-139.94436717663422 -8.52185316622183 1.3128789954484672
-139.44367176634213 -8.51111904835655 1.3064106653582543
-138.94297635605005 -8.500232201411572 1.2999308191230012
-138.442280945758 -8.48919279395288 1.2934397224827796
-137.94158553546592 -8.478000994546454 1.2869376411776718
-137.44089012517384 -8.466656971758274 1.2804248409477408
-136.94019471488178 -8.455160894154313 1.2739015875330653
-136.4394993045897 -8.443512930300562 1.267368146673717
-135.93880389429762 -8.431713248762984 1.2608247841097713
-135.43810848400557 -8.419762018107578 1.2542717655812998
-134.9374130737135 -8.407659406900306 1.2477093568283761
-134.4367176634214 -8.395405583707158 1.241137823591072
-133.93602225312935 -8.383000717094118 1.2345574316094643
-133.43532684283727 -8.37044497562715 1.227968446623625
-132.9346314325452 -8.357738527872252 1.2213711343736273
-132.43393602225314 -8.344881542395383 1.2147657605995397
-131.93324061196105 -8.331874187762542 1.2081525910414408
-131.43254520166897 -8.318716632539692 1.2015318914394042
-130.93184979137692 -8.305409045292832 1.1949039275334998
-130.43115438108484 -8.291951594587916 1.188268965063803
-129.93045897079276 -8.278344448990948 1.1816272697703907
-129.4297635605007 -8.264587777067897 1.1749791073933293
-128.92906815020862 -8.250681747384737 1.168324743672696
-128.42837273991654 -8.236626528507463 1.1616644443485624
-127.92767732962449 -8.222422289002038 1.1549984751610056
-127.4269819193324 -8.208069197434456 1.1483271018500938
-126.92628650904032 -8.193567422370679 1.1416505901559022
-126.42559109874827 -8.178917132376705 1.1349692058185061
-125.92489568845619 -8.164118496018498 1.1282832145779755
-125.42420027816411 -8.149171681862049 1.1215928821743857
-124.92350486787205 -8.134076858473334 1.11489847434781
-124.42280945757997 -8.118834194418332 1.1082002568383222
-123.92211404728789 -8.103443858263029 1.1014984953859956
-123.42141863699584 -8.087906018573387 1.0947934557309003
-122.92072322670376 -8.072220843915408 1.088085403613115
-122.42002781641168 -8.056388502855048 1.081374604772706
-121.91933240611961 -8.040409163958314 1.074661324949754
-121.41863699582754 -8.02428299579116 1.0679458298843256
-120.91794158553546 -8.008010166919574 1.0612283853164959
-120.41724617524339 -7.991590845909547 1.0545092569863437
-119.91655076495132 -7.975025201327041 1.047788710633939
-119.41585535465924 -7.958313401738055 1.0410670119993517
-118.91515994436718 -7.941455615708547 1.034344426822659
-118.41446453407511 -7.924452011804513 1.0276212208439324
-117.91376912378303 -7.907302758591927 1.0208976598032455
-117.41307371349096 -7.890008024636769 1.0141740094406737
-116.91237830319889 -7.872567978505012 1.0074505354962868
-116.41168289290681 -7.854982788762642 1.0007275037101602
-115.91098748261474 -7.837252623975646 0.9940051798223672
-115.41029207232268 -7.81937765270999 0.9872838295729816
-114.9095966620306 -7.801358043531662 0.980563718702073
-114.40890125173853 -7.78319396500663 0.9738451129497205
-113.90820584144646 -7.764885585700894 0.9671282780559922
-113.40751043115438 -7.746433074180418 0.9604134797609634
-112.90681502086231 -7.7278365990111855 0.9537009838047092
-112.40611961057024 -7.709096328759172 0.9469910559272998
-111.90542420027816 -7.690212431990362 0.9402839618688104
-111.4047287899861 -7.671185077270744 0.9335799673693144
-110.90403337969401 -7.652014433166277 0.9268793381688836
-110.40333796940195 -7.6327006682429595 0.920182340007595
-109.90264255910988 -7.613243951066751 0.9134892386255133
-109.4019471488178 -7.593644450203653 0.9068002997627245
-108.90125173852573 -7.573902334219637 0.9001157891592895
-108.40055632823366 -7.5540177716806785 0.8934359725552907
-107.89986091794158 -7.533990931152749 0.8867611156907964
-107.39916550764951 -7.513821981201852 0.8800914843058836
-106.89847009735745 -7.4935110903939535 0.8734273441406222
-106.39777468706536 -7.473058427295024 0.8667689609350822
-105.8970792767733 -7.452464160471051 0.8601166004293459
-105.39638386648123 -7.431728458488026 0.8534705283634851
-104.89568845618915 -7.410851489911911 0.8468310104775645
-104.39499304589708 -7.389833423308696 0.8401983125116628
-103.89429763560501 -7.368674427244359 0.8335727002058588
-103.39360222531293 -7.347374670284866 0.8269544393002173
-102.89290681502086 -7.325934320996213 0.8203437955348134
-102.3922114047288 -7.304353547944382 0.8137410346497207
-101.89151599443672 -7.282632519695339 0.8071464223850162
-101.39082058414465 -7.260771404815069 0.8005602244807699
-100.89012517385257 -7.238770371869558 0.7939827066770588
-100.3894297635605 -7.2166295894247785 0.7874141347139458
-99.88873435326843 -7.194349226046713 0.7808547743315186
-99.38803894297635 -7.171929450301336 0.7743048912698418
-98.88734353268428 -7.149370430754624 0.7677647512689871
-98.38664812239222 -7.126672335972577 0.7612346200690352
-97.88595271210013 -7.103835334521152 0.7547147634100524
-97.38525730180807 -7.080859594966347 0.7482054470321176
-96.884561891516 -7.057745285874121 0.7417069366753024
-96.38386648122392 -7.034492575810466 0.7352194980796716
-95.88317107093185 -7.0111016333413705 0.7287433969853163
-95.38247566063978 -6.987572627032799 0.7222788991322941
-94.8817802503477 -6.963905725450731 0.7158262702606821
-94.38108484005564 -6.940101097161152 0.7093857761105573
-93.88038942976357 -6.916158910730042 0.7029576824219896
-93.37969401947149 -6.892079334723379 0.6965422549350526
-92.87899860917942 -6.867862537707149 0.6901397593898233
-92.37830319888734 -6.843508688247313 0.6837504615263716
-91.87760778859527 -6.819017954909869 0.6773746270847711
-91.3769123783032 -6.794390506260791 0.6710125218050935
-90.87621696801112 -6.769626510866063 0.6646644114274176
-90.37552155771905 -6.744726137291659 0.6583305616918116
-89.87482614742699 -6.719689554103548 0.652011238338349
-89.3741307371349 -6.694516929867726 0.6457067071071068
-88.87343532684284 -6.669208433150169 0.6394172337381532
-88.37273991655077 -6.64376423251686 0.633143083971567
-87.87204450625869 -6.618184496533766 0.6268845235474201
-87.37134909596662 -6.592469393766871 0.6206418182057751
-86.87065368567455 -6.566619092782171 0.6144152336867288
-86.36995827538247 -6.540633762145626 0.6082050357303279
-85.8692628650904 -6.514513570423217 0.6020114900766655
-85.36856745479834 -6.488258686180929 0.5958348624658081
-84.86787204450626 -6.461869277984748 0.5896754186378237
-84.36717663421419 -6.435345514400639 0.583533424332793
-83.86648122392211 -6.408687563994599 0.5774091452907877
-83.36578581363004 -6.381895595332589 0.571302847251876
-82.86509040333797 -6.354969776980594 0.5652147959561384
-82.36439499304589 -6.327910277504612 0.5591452571436468
-81.86369958275382 -6.300717265470597 0.5530944965544693
-81.36300417246176 -6.273390909444538 0.5470627799286847
-80.86230876216968 -6.245931377992408 0.5410503730063612
-80.36161335187761 -6.218338839680213 0.5350575415275811
-79.86091794158554 -6.190613463073904 0.5290845512324074
-79.36022253129346 -6.162755416739477 0.5231316678609188
-78.85952712100139 -6.134764869242888 0.5171991571531871
-78.35883171070932 -6.106641989150143 0.511287284849284
-77.85813630041724 -6.078386945027221 0.5053963166892883
-77.35744089012518 -6.049999905440091 0.4995265184132718
-76.85674547983311 -6.02148103895472 0.49367815576129903
-76.35605006954103 -5.992830514137113 0.4878514944734542
-75.85535465924896 -5.964048499553231 0.4820468002898055
-75.35465924895689 -5.935135163769067 0.4762643389504282
-74.85396383866481 -5.906090675350599 0.47050437619539576
-74.35326842837274 -5.876915202863794 0.46476717776477816
-73.85257301808066 -5.847608914874636 0.4590530093986489
-73.3518776077886 -5.818171979949122 0.45336213683709037
-72.85118219749653 -5.788604566653214 0.44769482582016007
-72.35048678720445 -5.7589068435528805 0.4420513420879457
-71.84979137691238 -5.7290789792141315 0.4364319513805137
-71.34909596662031 -5.699121142202928 0.4308369194379411
-70.84840055632823 -5.669033501085254 0.4252665120002961
-70.34770514603616 -5.638816224427083 0.41972099480765745
-69.8470097357441 -5.608469480794399 0.41420063360008985
-69.34631432545201 -5.577993438753191 0.40870569411767743
-68.84561891515995 -5.547388266869428 0.4032364421004866
-68.34492350486788 -5.516654133709091 0.3977931432885926
-67.8442280945758 -5.485791207838142 0.39237606342206544
-67.34353268428373 -5.454799657822607 0.3869854682409857
-66.84283727399166 -5.423679652228417 0.3816216234854215
-66.34214186369958 -5.392431359621577 0.3762847948954464
-65.84144645340751 -5.361054948568055 0.3709752482111357
-65.34075104311543 -5.3295505876338485 0.3656932491725575
-64.84005563282336 -5.29791844538491 0.3604390635197907
-64.3393602225313 -5.266158690387245 0.35521295699291056
-63.838664812239216 -5.234271491206814 0.35001519533198167
-63.33796940194715 -5.202257016409613 0.3448460442770882
-62.83727399165508 -5.170115434561618 0.33970576956829124
-62.336578581363 -5.137846914228797 0.3345946369456785
-61.83588317107093 -5.1054516239771335 0.32951291214930567
-61.335187760778865 -5.072929732372616 0.3244608609192676
-60.834492350486784 -5.0402814079812135 0.31943874899561653
-60.333796940194716 -5.007506819368915 0.3144468421184383
-59.83310152990265 -4.974606135101697 0.30948540602780117
-59.33240611961057 -4.941579523745533 0.30455470646378213
-58.8317107093185 -4.908427153866407 0.2996550091664476
-58.33101529902643 -4.8751491940302945 0.2947865798758782
-57.83031988873435 -4.841745812803191 0.2899496843321474
-57.329624478442284 -4.808217178751059 0.2851445882753252
-56.82892906815022 -4.7745634604398735 0.28037155744548325
-56.328233657858135 -4.740784826435638 0.2756308575826987
-55.82753824756607 -4.706881445304321 0.27092275442704494
-55.326842837273986 -4.672853485611897 0.2662475137185938
-54.82614742698192 -4.638701115924336 0.26160540119741515
-54.32545201668985 -4.604424504807627 0.2569966826035843
-53.82475660639777 -4.570023820827766 0.25242162367717835
-53.3240611961057 -4.535499232550714 0.24788049015827252
-52.823365785813635 -4.500850908542448 0.24337354778692788
-52.322670375521554 -4.466079017368964 0.23890106230323394
-51.82197496522949 -4.431183727596229 0.23446329944724642
-51.321279554937405 -4.3961652077902205 0.23006052495905305
-50.82058414464535 -4.361023626516934 0.2256930045787202
-50.31988873435327 -4.32575915234233 0.2213610040463232
-49.81919332406119 -4.2903719538324 0.21706478910193727
-49.318497913769136 -4.254862199553125 0.21280462548563062
-48.817802503477054 -4.219230058070474 0.20858077893748028
-48.31710709318497 -4.1834756979504295 0.204393515197558
-47.81641168289292 -4.147599287758974 0.20024310000593726
-47.31571627260084 -4.111600996062096 0.19612979910269157
-46.81502086230876 -4.075480991425751 0.1920538782278962
-46.3143254520167 -4.039239442415957 0.1880156031216229
-45.81363004172462 -4.0028765175986525 0.18401523952394516
-45.31293463143254 -3.966392385539836 0.18005305317493647
-44.81223922114049 -3.9297872148054886 0.17612930981466324
-44.311543810848406 -3.8930611739615935 0.1722442751832114
-43.810848400556324 -3.8562144315741116 0.16839821502064378
-43.31015299026427 -3.8192471562090398 0.1645913950670428
-42.80945757997219 -3.7821595164323534 0.16082408106247126
-42.30876216968011 -3.744951680810035 0.15709653874701157
-41.808066759388026 -3.7076238179080456 0.15340903386073013
-41.30737134909597 -3.6701760962923893 0.14976183214370575
-40.80667593880389 -3.632608684529034 0.14615519933601018
-40.30598052851181 -3.594921751183963 0.14258940117771512
-39.80528511821976 -3.557115464823172 0.13906470340889765
-39.304589707927676 -3.5191899940125944 0.13558137176962592
-38.803894297635594 -3.481145507318248 0.13213967199997523
-38.30319888734354 -3.4429821733061154 0.12873986984001906
-37.80250347705146 -3.4047001605421507 0.1253822310298327
-37.30180806675938 -3.3662996375923435 0.12206702130948788
-36.801112656467325 -3.3277807730226834 0.11879450641905631
-36.30041724617524 -3.2891437353991386 0.1155649520986115
-35.79972183588316 -3.2503886932876846 0.11237862408822519
-35.29902642559111 -3.2115158152543253 0.10923578812797796
-34.79833101529903 -3.1725252698650075 0.106136709957938
-34.297635605006946 -3.133417225685742 0.10308165531817881
-33.79694019471489 -3.0941918512824906 0.10007088994877389
-33.29624478442281 -3.054849315221228 0.09710467958979496
-32.79554937413073 -3.0153897860679444 0.09418328998131731
-32.294853963838676 -2.975813432388622 0.0913069868634162
-31.794158553546595 -2.936120422749229 0.0884760359761616
-31.293463143254513 -2.8963109257157478 0.085690703059627
-30.79276773296246 -2.8563851098541755 0.08295125385388769
-30.29207232267038 -2.816343143730466 0.0802579540990207
-29.791376912378297 -2.776185195910602 0.07761106953508179
-29.290681502086244 -2.735911434960601 0.07501086590216755
-28.789986091794162 -2.695522029446382 0.07245760894033548
-28.28929068150208 -2.6550171479339704 0.06995156438966266
-27.788595271210028 -2.614396958989327 0.067492997990235
-27.287899860917946 -2.573661631178434 0.06508217548210116
-26.787204450625865 -2.5328113330672744 0.06271936260535416
-26.28650904033381 -2.4918462332218376 0.06040482510006395
-25.78581363004173 -2.4507665002080636 0.058138828706295165
-25.28511821974965 -2.4095723025919775 0.05592163916413018
-24.784422809457595 -2.3682638089395476 0.05375352221363716
-24.283727399165514 -2.326841187816728 0.0516347435948914
-23.783031988873432 -2.2853046077895365 0.04956556904796994
-23.28233657858135 -2.2436542374239132 0.04754626431293385
-22.781641168289298 -2.201890245285869 0.04557709512987085
-22.280945757997216 -2.1600127999413723 0.04365832723884733
-21.780250347705135 -2.1180220699563983 0.041790226379935014
-21.27955493741308 -2.0759182238969367 0.03997305829321274
-20.778859527121 -2.033701430328956 0.03820708871874867
-20.27816411682892 -1.9913718578184452 0.03649258339661987
-19.777468706536865 -1.9489296749313803 0.034829808066896284
-19.276773296244784 -1.9063750502337435 0.03321902846965141
-18.776077885952702 -1.8637081522914962 0.03166051034496409
-18.27538247566065 -1.8209291496706421 0.030154519432897153
-17.774687065368568 -1.7780382109371637 0.02870132147353832
-17.273991655076486 -1.735035504657008 0.027301182206946883
-16.773296244784433 -1.691921199396179 0.02595436737320167
-16.27260083449235 -1.6486954637206588 0.024661142712376183
-15.77190542420027 -1.605358466196423 0.023421773964549253
-15.271210013908217 -1.5619103753894543 0.0222365268697855
-14.770514603616135 -1.5183513598657066 0.021105667168163755
-14.269819193324054 -1.4746815881911908 0.020029460599750415
-13.769123783032 -1.4309012289318823 0.01900817290462964
-13.268428372739919 -1.3870104506537424 0.018042069822857165
-12.767732962447838 -1.3430094219227677 0.017131417094531365
-12.267037552155784 -1.2988983113049266 0.016276480459704423
-11.766342141863703 -1.2546772873662086 0.015477525658456948
-11.265646731571621 -1.2103465186725821 0.014734818430865992
-10.764951321279568 -1.165906173790051 0.014048624516997954
-10.264255910987487 -1.1213564212845548 0.013419209656929887
-9.763560500695405 -1.0767095966620301 0.012840458970792763
-9.262865090403352 -1.0330909596662041 0.012217496522948559
-8.76216968011127 -0.9903465924895692 0.011622169680111271
-8.261474269819189 -0.9480023643949926 0.011097621696801108
-7.760778859527136 -0.8960146036161354 0.010532503477051477
