Polar data for NACA 0012 at Re = 1245172.4137931035
Alpha (deg) Cl Cd
-180.0 -7.068124437209583 1.5440333981690229
-179.49930458970792 -7.074054981039874 1.5401043080391519
-178.99860917941587 -7.079854269431722 1.5361469470286684
-178.49791376912378 -7.085522232744829 1.5321615361225982
-177.9972183588317 -7.0910588013388995 1.5281482963059654
-177.49652294853965 -7.096463905573641 1.524107448563793
-176.99582753824757 -7.101737475808754 1.5200392138811027
-176.4951321279555 -7.106879442403951 1.5159438132429228
-175.99443671766343 -7.1118897357189255 1.5118214676342747
-175.49374130737135 -7.116768286113393 1.5076723980401834
-174.99304589707927 -7.121515023947053 1.5034968254456729
-174.49235048678722 -7.12612987957961 1.4992949708357663
-173.99165507649514 -7.130612783370774 1.4950670551954897
-173.49095966620305 -7.134963665680241 1.4908132995098642
-172.990264255911 -7.139182456867722 1.4865339247639149
-172.48956884561892 -7.14326908729292 1.4822291519426685
-171.98887343532684 -7.147223487315541 1.4778992020311454
-171.48817802503476 -7.151045587295293 1.4735442960143708
-170.9874826147427 -7.154735317591873 1.4691646548773702
-170.48678720445062 -7.158292608564993 1.4647604996051644
-169.98609179415854 -7.161717390574353 1.4603320511827826
-169.4853963838665 -7.165009593979656 1.4558795305952428
-168.9847009735744 -7.168169149140615 1.4514031588275715
-168.48400556328232 -7.1711959864169295 1.4469031568647956
-167.98331015299027 -7.174090036168307 1.4423797456919356
-167.4826147426982 -7.1768512287544475 1.4378331462940173
-166.9819193324061 -7.179479494535057 1.433263579656061
-166.48122392211405 -7.181974763869848 1.4286712667630956
-165.98052851182197 -7.184336967118515 1.424056428600144
-165.4798331015299 -7.186566034640771 1.4194192861522286
-164.97913769123784 -7.188661896796312 1.4147600604043742
-164.47844228094576 -7.19062448394485 1.4100789723416067
-163.97774687065368 -7.192453726446091 1.405376242948945
-163.47705146036162 -7.194149554659733 1.4006520932114181
-162.97635605006954 -7.195711898945488 1.3959067441140487
-162.47566063977746 -7.197140689663053 1.3911404166418606
-161.9749652294854 -7.198435857172139 1.3863533317798762
-161.47426981919332 -7.199597331832448 1.3815457105131213
-160.97357440890124 -7.2006250440036865 1.3767177738266199
-160.4728789986092 -7.20151892404556 1.371869742705396
-159.9721835883171 -7.202278902317769 1.367001838134474
-159.47148817802503 -7.202904909180022 1.3621142810988758
-158.97079276773297 -7.203396874992029 1.357207292583631
-158.4700973574409 -7.203754730113481 1.3522810935737546
-157.9694019471488 -7.203978404904095 1.3473359050542761
-157.46870653685676 -7.204067829723568 1.3423719480102214
-156.96801112656468 -7.204022934931615 1.337389443426611
-156.4673157162726 -7.203843650887929 1.3323886122884687
-155.96662030598054 -7.20352990795222 1.3273696755808233
-155.46592489568846 -7.203081636484198 1.3223328542886925
-154.96522948539638 -7.202498766843558 1.3172783693971049
-154.46453407510432 -7.201781229390011 1.31220644189108
-153.96383866481224 -7.20092895448326 1.307117292755649
-153.46314325452016 -7.199941872483009 1.3020111429758288
-152.9624478442281 -7.198819913748968 1.296888213536647
-152.46175243393603 -7.197563008640833 1.2917487254231261
-151.96105702364395 -7.196171087518321 1.2865928996202918
-151.4603616133519 -7.194644080741121 1.2814209571131663
-150.9596662030598 -7.192981918668952 1.2762331188867737
-150.45897079276773 -7.191184531661513 1.2710296059261417
-149.95827538247568 -7.189251850078506 1.265810639216289
-149.4575799721836 -7.187183804279645 1.260576439742243
-148.9568845618915 -7.184980324624622 1.2553272284890244
-148.45618915159943 -7.1826413414731505 1.2500632264416645
-147.95549374130738 -7.180166785184936 1.2447846545851782
-147.4547983310153 -7.17755658611968 1.2394917339045968
-146.95410292072324 -7.174810674637088 1.2341846853849399
-146.45340751043116 -7.171928981096864 1.2288637300112324
-145.95271210013908 -7.168911435858714 1.2235290887684975
-145.452016689847 -7.165757969282344 1.2181809826417647
-144.95132127955495 -7.162468511727452 1.2128196326160499
-144.45062586926286 -7.159042993553758 1.2074452596763834
-143.94993045897078 -7.155481345120949 1.202058084807783
-143.44923504867873 -7.151783496788742 1.196658328995282
-142.94853963838665 -7.147949378916836 1.1912462132238995
-142.44784422809457 -7.143978921864937 1.1858219584786553
-141.9471488178025 -7.139872055992752 1.180385785744578
-141.44645340751043 -7.135628711659983 1.174937916006689
-140.94575799721835 -7.1312488192263395 1.1694785702500186
-140.44506258692627 -7.126732309051519 1.1640079694595844
-139.94436717663422 -7.122079111495228 1.1585263346204115
-139.44367176634213 -7.117289156917181 1.1530338867175267
-138.94297635605005 -7.112362375677071 1.1475308467359513
-138.442280945758 -7.10729869813461 1.1420174356607085
-137.94158553546592 -7.102098054649499 1.1364938744768267
-137.44089012517384 -7.0967603755814395 1.1309603841693248
-136.94019471488178 -7.091285591290147 1.125417185723232
-136.4394993045897 -7.085673632135318 1.119864500123569
-135.93880389429762 -7.079924428476659 1.1143025483553588
-135.43810848400557 -7.074037910673875 1.1087315514036273
-134.9374130737135 -7.068014009086671 1.1031517302533986
-134.4367176634214 -7.0618526540747535 1.0975633058896959
-133.93602225312935 -7.055553775997826 1.0919664992975449
-133.43532684283727 -7.049117305215592 1.0863615314619688
-132.9346314325452 -7.042543172087758 1.080748623367989
-132.43393602225314 -7.035831306974028 1.0751279960006332
-131.93324061196105 -7.028981640234106 1.0694998703449228
-131.43254520166897 -7.021994102227696 1.0638644673858844
-130.93184979137692 -7.014868623314511 1.058222008108542
-130.43115438108484 -7.007605133854245 1.0525727134979146
-129.93045897079276 -7.000203564206608 1.0469168045390322
-129.4297635605007 -6.992663844731307 1.0412545022169173
-128.92906815020862 -6.98498590578804 1.0355860275165911
-128.42837273991654 -6.977169677736521 1.0299116014230822
-127.92767732962449 -6.969215090936446 1.0242314449214103
-127.4269819193324 -6.961122075747527 1.0185457789966001
-126.92628650904032 -6.952890562529461 1.0128548246336777
-126.42559109874827 -6.944520481641959 1.007158802817667
-125.92489568845619 -6.936011763444727 1.0014579345335903
-125.42420027816411 -6.927364338297464 0.9957524407664734
-124.92350486787205 -6.918578136559878 0.9900425425013369
-124.42280945757997 -6.909653088591673 0.9843284607232102
-123.92211404728789 -6.900589124752555 0.9786104164171155
-123.42141863699584 -6.89138617540223 0.9728886305680734
-122.92072322670376 -6.882044170900398 0.9671633241611096
-122.42002781641168 -6.872563041606773 0.9614347181812518
-121.91933240611961 -6.862942717881047 0.9557030336135169
-121.41863699582754 -6.853183130082934 0.9499684914429379
-120.91794158553546 -6.843284208572138 0.9442313126545282
-120.41724617524339 -6.833245883708361 0.9384917182333224
-119.91655076495132 -6.823068085851311 0.9327499291643394
-119.41585535465924 -6.81275074536069 0.9270061664326031
-118.91515994436718 -6.802293792596203 0.9212606510231359
-118.41446453407511 -6.791697157917554 0.9155136039209654
-117.91376912378303 -6.78096077168445 0.9097652461111138
-117.41307371349096 -6.770084564256601 0.9040157985786069
-116.91237830319889 -6.759068465993698 0.8982654823084654
-116.41168289290681 -6.747912407255461 0.8925145182857167
-115.91098748261474 -6.736616318401584 0.8867631274953832
-115.41029207232268 -6.725180129791774 0.881011530922489
-114.9095966620306 -6.713603771785742 0.875259949552058
-114.40890125173853 -6.701887174743183 0.8695086043691126
-113.90820584144646 -6.690030269023813 0.8637577163586821
-113.40751043115438 -6.678032984987327 0.8580075065057836
-112.90681502086231 -6.665895252993437 0.8522581957954464
-112.40611961057024 -6.653617003401839 0.8465100052126927
-111.90542420027816 -6.641198166572249 0.8407631557425485
-111.4047287899861 -6.628638672864366 0.8350178683700341
-110.90403337969401 -6.6159384526378915 0.8292743640801737
-110.40333796940195 -6.6030974362525345 0.8235328638579967
-109.90264255910988 -6.590115554068001 0.8177935886885183
-109.4019471488178 -6.576992736443996 0.8120567595567713
-108.90125173852573 -6.563728913740222 0.8063225974477745
-108.40055632823366 -6.550324016316381 0.8005913233465537
-107.89986091794158 -6.536777974532182 0.7948631582381313
-107.39916550764951 -6.523090718747332 0.7891383231075347
-106.89847009735745 -6.50926217932153 0.7834170389397864
-106.39777468706536 -6.495292286614484 0.777699526719905
-105.8970792767733 -6.481180970985898 0.7719860074329236
-105.39638386648123 -6.4669281627954796 0.7662767020638624
-104.89568845618915 -6.45253379240293 0.760571831597744
-104.39499304589708 -6.4379977901679535 0.754871617019594
-103.89429763560501 -6.423320086450261 0.7491762793144366
-103.39360222531293 -6.408500611609551 0.7434860394672959
-102.89290681502086 -6.393539296005528 0.7378011184631904
-102.3922114047288 -6.3784360699979015 0.7321217372871497
-101.89151599443672 -6.3631908639463735 0.7264481169241995
-101.39082058414465 -6.347803608210652 0.7207804783593622
-100.89012517385257 -6.332274233150436 0.71511904257766
-100.3894297635605 -6.316602669125434 0.7094640305641152
-99.88873435326843 -6.3007888464953545 0.7038156633037608
-99.38803894297635 -6.284832695619892 0.6981741617816083
-98.88734353268428 -6.268734146858764 0.6925397469826907
-98.38664812239222 -6.252493130571663 0.6869126398920286
-97.88595271210013 -6.236109577118301 0.6812930614946494
-97.38525730180807 -6.21958341685839 0.6756812327755702
-96.884561891516 -6.202914580151619 0.6700773747198222
-96.38386648122392 -6.186102997357702 0.6644817083124223
-95.88317107093185 -6.169148598836339 0.6588944545384051
-95.38247566063978 -6.152051314947245 0.653315834382786
-94.8817802503477 -6.134811076050111 0.647746068830587
-94.38108484005564 -6.1174278125046495 0.6421853788668413
-93.88038942976357 -6.099901454670567 0.636633985476564
-93.37969401947149 -6.082231932907563 0.6310921096447827
-92.87899860917942 -6.064419177575351 0.6255599723565249
-92.37830319888734 -6.046463119033623 0.6200377945968113
-91.87760778859527 -6.028363687642093 0.6145257973506658
-91.3769123783032 -6.010120813760468 0.6090242016031143
-90.87621696801112 -5.991734427748442 0.6035332283391773
-90.37552155771905 -5.973204459965727 0.5980530985438824
-89.87482614742699 -5.954530840772032 0.5925840332022502
-89.3741307371349 -5.935713500527056 0.5871262532993046
-88.87343532684284 -5.916752369590503 0.581679979820075
-88.37273991655077 -5.897647378322079 0.576245433749582
-87.87204450625869 -5.878398457081493 0.5708228360728514
-87.37134909596662 -5.859005536228439 0.5654124077748984
-86.87065368567455 -5.839468546122633 0.560014369840763
-86.36995827538247 -5.819787417123779 0.5546289432554533
-85.8692628650904 -5.799962079591575 0.5492563490040058
-85.36856745479834 -5.779992463885735 0.5438968080714356
-84.86787204450626 -5.759878500365952 0.5385505414427704
-84.36717663421419 -5.7396201193919385 0.533217770103036
-83.86648122392211 -5.719217251323402 0.5278987150372546
-83.36578581363004 -5.698669826520044 0.5225935972304504
-82.86509040333797 -5.6779777753415654 0.5173026376676403
-82.36439499304589 -5.6571410281476755 0.5120260573338643
-81.86369958275382 -5.636159515298081 0.5067640772141341
-81.36300417246176 -5.615033167152477 0.5015169182934737
-80.86230876216968 -5.5937619140705745 0.4962848015569107
-80.36161335187761 -5.572345686412087 0.49106794798947095
-79.86091794158554 -5.550784414536706 0.48586657857617677
-79.36022253129346 -5.529078028804145 0.4806809143020522
-78.85952712100139 -5.507226459574101 0.4755111761521177
-78.35883171070932 -5.485229637206283 0.4703575851114027
-77.85813630041724 -5.463087492060405 0.46522036216492413
-77.35744089012518 -5.440799954496159 0.4600997282977203
-76.85674547983311 -5.418366954873251 0.45499590449479743
-76.35605006954103 -5.395788423551389 0.4499091117411921
-75.85535465924896 -5.373064290890275 0.4448395710219176
-75.35465924895689 -5.350194487249622 0.43978750332201233
-74.85396383866481 -5.327178942989123 0.4347531296264896
-74.35326842837274 -5.304017588468499 0.42973667092037526
-73.85257301808066 -5.280710354047434 0.42473834818868983
-73.3518776077886 -5.257257170085653 0.419758382416468
-72.85118219749653 -5.233657966942845 0.41479699458872676
-72.35048678720445 -5.209912674978719 0.4098544056904919
-71.84979137691238 -5.186021224552986 0.4049308367067822
-71.34909596662031 -5.161983546025349 0.40002650862263056
-70.84840055632823 -5.137799569755506 0.39514164242305394
-70.34770514603616 -5.113469226103172 0.39027645909308173
-69.8470097357441 -5.088992445428046 0.3854311796177291
-69.34631432545201 -5.06436915808983 0.380606024982029
-68.84561891515995 -5.039599294448232 0.3758012161710037
-68.34492350486788 -5.0146827848629645 0.3710169741696737
-67.8442280945758 -4.9896195596937165 0.36625351996306665
-67.34353268428373 -4.964409549300202 0.36151107453620657
-66.84283727399166 -4.939052684042126 0.35678985887411396
-66.34214186369958 -4.913548894279193 0.35209009396181823
-65.84144645340751 -4.887898110371109 0.34741200078433454
-65.34075104311543 -4.862100262677574 0.3427558003266976
-64.84005563282336 -4.836155281558296 0.33812171357392085
-64.3393602225313 -4.81006309737298 0.33350996151104073
-63.838664812239216 -4.783823640481332 0.3289207651230689
-63.33796940194715 -4.757436841243058 0.3243543453950418
-62.83727399165508 -4.730902630017857 0.31981092331197114
-62.336578581363 -4.704220937165436 0.3152907198588827
-61.83588317107093 -4.677391693045498 0.3107939560208094
-61.335187760778865 -4.6504148280177535 0.30632085278277
-60.834492350486784 -4.6232902724419045 0.30187163112978854
-60.333796940194716 -4.596017956677658 0.2974465120468891
-59.83310152990265 -4.568597811084716 0.2930457165190957
-59.33240611961057 -4.5410297660227865 0.28866946553143424
-58.8317107093185 -4.513313751851561 0.28431798006891984
-58.33101529902643 -4.485449698930767 0.2799914811165837
-57.83031988873435 -4.457437537620093 0.27569018965945513
-57.329624478442284 -4.429277198279246 0.2714143266825547
-56.82892906815022 -4.4009686112679365 0.2671641131708976
-56.328233657858135 -4.37251170694587 0.2629397701095221
-55.82753824756607 -4.343906415672739 0.2587415184834362
-55.326842837273986 -4.315152667808258 0.25456957927768
-54.82614742698192 -4.286250393712136 0.25042417347726686
-54.32545201668985 -4.257199523744065 0.24630552206722267
-53.82475660639777 -4.227999988263766 0.24221384603257323
-53.3240611961057 -4.198651717630929 0.23814936635834438
-52.823365785813635 -4.169154642205262 0.23411230402955308
-52.322670375521554 -4.13950869234648 0.2301028800312358
-51.82197496522949 -4.109713798414278 0.22612131534840418
-51.321279554937405 -4.079769890768356 0.2221678309660876
-50.82058414464535 -4.049676899768437 0.21824264786930658
-50.31988873435327 -4.019434755774212 0.2143459870430905
-49.81919332406119 -3.989043389145388 0.21047806947245984
-49.318497913769136 -3.9585027302416704 0.20663911614244224
-48.817802503477054 -3.927812709422765 0.2028293480380564
-48.31710709318497 -3.8969732570483706 0.1990489861443282
-47.81641168289292 -3.8659843034782013 0.1952982514462852
-47.31571627260084 -3.8348457790719634 0.19157736492894972
-46.81502086230876 -3.8035576141893457 0.18788654757734224
-46.3143254520167 -3.7721197391900723 0.1842260203764886
-45.81363004172462 -3.7405320844338354 0.1805960043114182
-45.31293463143254 -3.7087945802803453 0.17699672036714975
-44.81223922114049 -3.6769071570893046 0.17342838952870376
-44.311543810848406 -3.64486974522042 0.16989123278111318
-43.810848400556324 -3.6126822750333942 0.1663854711093914
-43.31015299026427 -3.580344676887934 0.1629113254985749
-42.80945757997219 -3.5478568811437454 0.15946901693367355
-42.30876216968011 -3.5152188181605246 0.15605876639972383
-41.808066759388026 -3.4824304182979886 0.15268079488174624
-41.30737134909597 -3.449491611915833 0.14933532336475952
-40.80667593880389 -3.4164023293737684 0.14602257283379305
-40.30598052851181 -3.3831625010314936 0.1427427642738709
-39.80528511821976 -3.3497720572487295 0.1394961186700171
-39.304589707927676 -3.3162309283851577 0.13628285700725218
-38.803894297635594 -3.2825390448004916 0.13310320027060019
-38.30319888734354 -3.2486963368544486 0.12995736944509229
-37.80250347705146 -3.2147027349067137 0.12684558551574365
-37.30180806675938 -3.1805581693170075 0.12376806946758012
-36.801112656467325 -3.146262570445033 0.12072504228563286
-36.30041724617524 -3.1118158686504827 0.11771672495491703
-35.79972183588316 -3.077217994293066 0.11474333846046025
-35.29902642559111 -3.0424688777325044 0.11180510378728836
-34.79833101529903 -3.007568449328479 0.10890224192042541
-34.297635605006946 -2.9725166394407068 0.10603497384489191
-33.79694019471489 -2.937313378428898 0.10320352054571014
-33.29624478442281 -2.9019585966527415 0.10040810300790948
-32.79554937413073 -2.866452224471954 0.09764894221651399
-32.294853963838676 -2.830794192246246 0.09492625915654596
-31.794158553546595 -2.794984430335299 0.09224027481302588
-31.293463143254513 -2.7590228690988403 0.0895912101709867
-30.79276773296246 -2.7229094388965733 0.08697928621543827
-30.29207232267038 -2.68664407008819 0.0844047239314224
-29.791376912378297 -2.6502266930333938 0.08186774430394894
-29.290681502086244 -2.6136572380919154 0.07936856831804728
-28.789986091794162 -2.5769356356234296 0.0769074169587397
-28.28929068150208 -2.54006181598765 0.07448451121105382
-27.788595271210028 -2.503035709544297 0.07210007206001368
-27.287899860917946 -2.46585724665306 0.06975432049063446
-26.787204450625865 -2.4285263576736447 0.06744747748795266
-26.28650904033381 -2.391042972965765 0.06517976403698522
-25.78581363004173 -2.3534070228891095 0.06295140112275799
-25.28511821974965 -2.315618437803392 0.060762609730289685
-24.784422809457595 -2.2776771480683293 0.05861361084461503
-24.283727399165514 -2.2395830840435997 0.056504625450747414
-23.783031988873432 -2.2013361760889345 0.05443587453372156
-23.28233657858135 -2.162936354564026 0.05240757907855087
-22.781641168289298 -2.1243835498285732 0.05041996007026117
-22.280945757997216 -2.0856776922422937 0.04847323849388363
-21.780250347705135 -2.04681871216489 0.04656763533443342
-21.27955493741308 -2.0078065399560585 0.04470337157694526
-20.778859527121 -1.9686411059755122 0.04288066820643255
-20.27816411682892 -1.9293223405829543 0.04109974620792822
-19.777468706536865 -1.889850174138084 0.03936082656644391
-19.276773296244784 -1.8502245370006078 0.037664130267019647
-18.776077885952702 -1.8104453595302394 0.03600987829466351
-18.27538247566065 -1.7705125720866781 0.03439829163441377
-17.774687065368568 -1.7304261050296197 0.032829591271285596
-17.273991655076486 -1.6901858887187813 0.03130399819030305
-16.773296244784433 -1.6497918535138694 0.02982173337649552
-16.27260083449235 -1.6092439297745726 0.028383017814883504
-15.77190542420027 -1.5685420478606154 0.026988072490492843
-15.271210013908217 -1.5276861381316933 0.025637118388349367
-14.770514603616135 -1.4866761309475023 0.0243303764934647
-14.269819193324054 -1.44551195666777 0.02306806779087711
-13.769123783032 -1.404193545652182 0.021850413265607105
-13.268428372739919 -1.3627208282604442 0.020677633902671633
-12.767732962447838 -1.3210937348522669 0.019549950687108963
-12.267037552155784 -1.2793121957873566 0.01846758460393072
-11.766342141863703 -1.237376141425416 0.01743075663816096
-11.265646731571621 -1.1952855021261448 0.016439687774832623
-10.764951321279568 -1.15304020824926 0.015494598998959108
-10.264255910987487 -1.1106401901544536 0.014595711295575131
-9.763560500695405 -1.0681026425591096 0.013738052851182188
-9.262865090403352 -1.0247372739916565 0.013019666203059822
-8.76216968011127 -0.9817600834492355 0.01237752433936023
-8.261474269819189 -0.9399161335187757 0.011732851182197492
