Polar data for NACA 0012 at Re = 1725517.2413793106
Alpha (deg) Cl Cd
-180.0 -10.313115855524961 1.985195591729967
-179.49930458970792 -10.310999356798066 1.979931745184002
-178.99860917941587 -10.30868828990497 1.974630876421301
-178.49791376912378 -10.306183070533057 1.9692932858687955
-177.9972183588317 -10.303484114369715 1.9639192739534221
-177.49652294853965 -10.300591837102333 1.9585091411021176
-176.99582753824757 -10.297506654418287 1.9530631877418096
-176.4951321279555 -10.294228982004968 1.9475817142994332
-175.99443671766343 -10.290759235549773 1.9420650212019284
-175.49374130737135 -10.287097830740064 1.9365134088762213
-174.99304589707927 -10.283245183263249 1.9309271777492538
-174.49235048678722 -10.279201708806704 1.9253066282479512
-173.99165507649514 -10.274967823057812 1.9196520607992553
-173.49095966620305 -10.270543941703968 1.913963775830094
-172.990264255911 -10.265930480432539 1.9082420737674057
-172.48956884561892 -10.261127854930931 1.9024872550381244
-171.98887343532684 -10.25613648088653 1.8966996200691824
-171.48817802503476 -10.250956773986703 1.8908794692875135
-170.9874826147427 -10.245589149918851 1.8850271031200527
-170.48678720445062 -10.240034024370354 1.8791428219937305
-169.98609179415854 -10.2342918130286 1.873226926335487
-169.4853963838665 -10.22836293158097 1.867279716572252
-168.9847009735744 -10.222247795714859 1.86130149313096
-168.48400556328232 -10.215946821117642 1.8552925564385478
-167.98331015299027 -10.209460423476711 1.849253206921947
-167.4826147426982 -10.202789018479452 1.8431837450080903
-166.9819193324061 -10.195933021813248 1.8370844711239147
-166.48122392211405 -10.188892849165486 1.8309556856963505
-165.98052851182197 -10.181668916223552 1.824797689152337
-165.4798331015299 -10.17426163867483 1.8186107819188029
-164.97913769123784 -10.16667143220671 1.8123952644226866
-164.47844228094576 -10.158898712506572 1.8061514370909195
-163.97774687065368 -10.150943895261802 1.7998796003504347
-163.47705146036162 -10.14280739615979 1.793580054628167
-162.97635605006954 -10.134489630887922 1.7872531003510514
-162.47566063977746 -10.125991015133584 1.7808990379460263
-161.9749652294854 -10.117311964584156 1.774518167840016
-161.47426981919332 -10.108452894927018 1.7681107904599604
-160.97357440890124 -10.09941422184958 1.761677206232793
-160.4728789986092 -10.0901963610392 1.7552177155854467
-159.9721835883171 -10.080799728183278 1.7487326189448582
-159.47148817802503 -10.071224738969205 1.7422222167379589
-158.97079276773297 -10.061471809084354 1.7356868093916835
-158.4700973574409 -10.051541354216118 1.7291266973329635
-157.9694019471488 -10.041433790051881 1.7225421809887373
-157.46870653685676 -10.031149532279022 1.7159335607859363
-156.96801112656468 -10.020688996584942 1.709301137151497
-156.4673157162726 -10.01005259865701 1.7026452105123473
-155.96662030598054 -9.999240754182624 1.695966081295431
-155.46592489568846 -9.98825387884917 1.6892640499276739
-154.96522948539638 -9.97709238834402 1.6825394168360128
-154.46453407510432 -9.965756698354577 1.6757924824473827
-153.96383866481224 -9.954247224568208 1.6690235471887147
-153.46314325452016 -9.942564382672318 1.6622329114869474
-152.9624478442281 -9.93070858835428 1.6554208757690103
-152.46175243393603 -9.91868025730148 1.6485877404618383
-151.96105702364395 -9.906479805201313 1.6417338059923663
-151.4603616133519 -9.894107647741157 1.634859372787531
-150.9596662030598 -9.881564200608404 1.6279647412742635
-150.45897079276773 -9.868849879490424 1.6210502118794954
-149.95827538247568 -9.855965100074629 1.6141160850301668
-149.4575799721836 -9.842910278048373 1.6071626611532037
-148.9568845618915 -9.829685829099068 1.6001902406755464
-148.45618915159943 -9.816292168914098 1.5931991240241279
-147.95549374130738 -9.802729713180826 1.5861896116258813
-147.4547983310153 -9.788998877586666 1.5791620039077434
-146.95410292072324 -9.775100077818978 1.5721166012966419
-146.45340751043116 -9.761033729565161 1.565053704219517
-145.95271210013908 -9.746800248512608 1.5579736131032964
-145.452016689847 -9.732400050348689 1.5508766283749222
-144.95132127955495 -9.717833550760796 1.5437630504613222
-144.45062586926286 -9.703101165436324 1.536633179789433
-143.94993045897078 -9.688203310062635 1.5294873167861842
-143.44923504867873 -9.673140400327148 1.5223257618785178
-142.94853963838665 -9.657912851917226 1.5151488154933668
-142.44784422809457 -9.642521080520256 1.5079567780576555
-141.9471488178025 -9.626965501823625 1.5007499499983277
-141.44645340751043 -9.611246531514725 1.493528631742311
-140.94575799721835 -9.595364585280935 1.4862931237165442
-140.44506258692627 -9.579320078809639 1.47904372634796
-139.94436717663422 -9.563113427788233 1.471780740063492
-139.44367176634213 -9.546745047904105 1.4645044652900763
-138.94297635605005 -9.530215354844623 1.4572152024546428
-138.442280945758 -9.513524764297175 1.449913251984128
-137.94158553546592 -9.496673691949168 1.4425989143054652
-137.44089012517384 -9.479662553487964 1.4352724898455909
-136.94019471488178 -9.462491764600964 1.4279342790314347
-136.4394993045897 -9.445161740975545 1.4205845822899332
-135.93880389429762 -9.427672898299098 1.4132237000480197
-135.43810848400557 -9.410025652259003 1.405851932732627
-134.9374130737135 -9.392220418542655 1.398469580770694
-134.4367176634214 -9.374257612837427 1.3910769445891498
-133.93602225312935 -9.356137650830712 1.3836743246149312
-133.43532684283727 -9.337860948209896 1.3762620212749697
-132.9346314325452 -9.319427920662369 1.3688403349962
-132.43393602225314 -9.300838983875495 1.361409566205557
-131.93324061196105 -9.2820945535367 1.3539700153299739
-131.43254520166897 -9.263195045333328 1.3465219827963855
-130.93184979137692 -9.244140874952793 1.3390657690317285
-130.43115438108484 -9.224932458082465 1.3316016744629307
-129.93045897079276 -9.205570210409737 1.3241299995169322
-129.4297635605007 -9.186054547621994 1.3166510446206627
-128.92906815020862 -9.16638588540661 1.3091651102010553
-128.42837273991654 -9.146564639450995 1.3016724966850501
-127.92767732962449 -9.12659122544252 1.294173504499575
-127.4269819193324 -9.106466059068564 1.2866684340715684
-126.92628650904032 -9.086189556016516 1.2791575858279598
-126.42559109874827 -9.065762131973779 1.2716412601956895
-125.92489568845619 -9.045184202627718 1.2641197576016852
-125.42420027816411 -9.024456183665725 1.2565933784728835
-124.92350486787205 -9.003578490775192 1.2490624232362195
-124.42280945757997 -8.982551539643493 1.2415271923186226
-123.92211404728789 -8.961375745958035 1.2339879861470349
-123.42141863699584 -8.94005152540617 1.2264451051483805
-122.92072322670376 -8.918579293675316 1.2188988497496032
-122.42002781641168 -8.896959466452843 1.211349520377629
-121.91933240611961 -8.87519245942614 1.2037974174594017
-121.41863699582754 -8.853278688282588 1.1962428414218473
-120.91794158553546 -8.831218568709582 1.1886860926918936
-120.41724617524339 -8.809012516394498 1.1811274716964915
-119.91655076495132 -8.786660947024727 1.1735672788625615
-119.41585535465924 -8.764164276287653 1.166005814617044
-118.91515994436718 -8.741522919870663 1.158443379386872
-118.41446453407511 -8.718737293461148 1.150880273598977
-117.91376912378303 -8.695807812746475 1.1433167976802918
-117.41307371349096 -8.672734893414054 1.1357532520577622
-116.91237830319889 -8.64951895115126 1.1281899371583053
-116.41168289290681 -8.626160401645459 1.1206271534088665
-115.91098748261474 -8.602659660584083 1.1130652012363755
-115.41029207232268 -8.57901714365447 1.105504381067769
-114.9095966620306 -8.55523326654403 1.097944993329978
-114.40890125173853 -8.53130844494016 1.0903873384499343
-113.90820584144646 -8.507243094530212 1.0828317168545831
-113.40751043115438 -8.483037631001595 1.0752784289708435
-112.90681502086231 -8.458692470041692 1.067727775225659
-112.40611961057024 -8.43420802733789 1.0601800560459649
-111.90542420027816 -8.409584718577557 1.0526355718586868
-111.4047287899861 -8.384822959448117 1.0450946230907705
-110.90403337969401 -8.359923165636916 1.037557510169133
-110.40333796940195 -8.334885752831356 1.0300245335207252
-109.90264255910988 -8.309711136718827 1.0224959935724713
-109.4019471488178 -8.284399732986701 1.0149721907513134
-108.90125173852573 -8.258951957322383 1.007453425484172
-108.40055632823366 -8.233368225413239 0.9999399981979964
-107.89986091794158 -8.207648952946665 0.9924322093197124
-107.39916550764951 -8.181794555610063 0.9849303592762568
-106.89847009735745 -8.15580544909078 0.9774347484945591
-106.39777468706536 -8.129682049076225 0.9699456774015542
-105.8970792767733 -8.103424771253787 0.9624634464241841
-105.39638386648123 -8.07703403131084 0.954988355989373
-104.89568845618915 -8.050510244934786 0.9475207065240576
-104.39499304589708 -8.023853827813001 0.9400607984551763
-103.89429763560501 -7.9970651956328656 0.9326089322096605
-103.39360222531293 -7.970144764081768 0.9251654082144449
-102.89290681502086 -7.943092948847104 0.9177305268964593
-102.3922114047288 -7.915910165616241 0.9103045886826437
-101.89151599443672 -7.888596830076581 0.9028878939999243
-101.39082058414465 -7.861153357915514 0.895480743275243
-100.89012517385257 -7.833580164820406 0.8880834369355293
-100.3894297635605 -7.805877666478652 0.8806962754077199
-99.88873435326843 -7.778046278577635 0.8733195591187497
-99.38803894297635 -7.750086416804743 0.86595358849555
-98.88734353268428 -7.721998496847371 0.8585986639650505
-98.38664812239222 -7.693782934392894 0.851255085954193
-97.88595271210013 -7.665440145128693 0.8439231548899124
-97.38525730180807 -7.636970544742178 0.8366031711991366
-96.884561891516 -7.608374548920702 0.8292954353088022
-96.38386648122392 -7.579652573351668 0.8220002476458388
-95.88317107093185 -7.5508050337224635 0.8147179086371901
-95.38247566063978 -7.521832345720471 0.8074487187097856
-94.8817802503477 -7.492734925033064 0.8001929782905497
-94.38108484005564 -7.463513187347646 0.7929509878064314
-93.88038942976357 -7.434167548351612 0.7857230476843584
-93.37969401947149 -7.404698423732315 0.7785094583512604
-92.87899860917942 -7.375106229177158 0.7713105202340811
-92.37830319888734 -7.3453913803735364 0.7641265337597483
-91.87760778859527 -7.315554293008818 0.7569577993551933
-91.3769123783032 -7.285595382770397 0.749804617447358
-90.87621696801112 -7.255515065345664 0.7426672884631687
-90.37552155771905 -7.225313756421992 0.7355461128295635
-89.87482614742699 -7.194991871686776 0.7284413909734793
-89.3741307371349 -7.164549826827406 0.7213534233218384
-88.87343532684284 -7.133988037531262 0.71428251030159
-88.37273991655077 -7.1033069194857195 0.7072289523396582
-87.87204450625869 -7.072506888378188 0.7001930498629816
-87.37134909596662 -7.04158835989602 0.6931751032984843
-86.87065368567455 -7.010551749726632 0.6861754130731172
-86.36995827538247 -6.9793974735574 0.6791942796138046
-85.8692628650904 -6.948125947075697 0.6722320033474778
-85.36856745479834 -6.91673758596894 0.6652888847010787
-84.86787204450626 -6.885232805924476 0.6583652241015334
-84.36717663421419 -6.853612022629713 0.6514613219757821
-83.86648122392211 -6.821875651772041 0.6445774787507561
-83.36578581363004 -6.790024109038827 0.6377139948533903
-82.86509040333797 -6.7580578101174655 0.630871170710616
-82.36439499304589 -6.72597717069536 0.62404930674937
-81.86369958275382 -6.693782606459871 0.6172487033965852
-81.36300417246176 -6.66147453309838 0.6104696610791949
-80.86230876216968 -6.629053366298296 0.6037124802241338
-80.36161335187761 -6.596519521747 0.5969774612583387
-79.86091794158554 -6.5638734151318605 0.5902649046087409
-79.36022253129346 -6.531115462140287 0.5835751107022717
-78.85952712100139 -6.498246078459646 0.5769083799658714
-78.35883171070932 -6.465265679777334 0.5702650128264641
-77.85813630041724 -6.432174681780724 0.5636453097109972
-77.35744089012518 -6.3989735001572345 0.5570495710464021
-76.85674547983311 -6.365662550594196 0.5504780972595975
-76.35605006954103 -6.332242248779041 0.543931188777538
-75.85535465924896 -6.298713010399142 0.5374091460271389
-75.35465924895689 -6.265075251141875 0.5309122694353527
-74.85396383866481 -6.231329386694634 0.5244408594290986
-74.35326842837274 -6.197475832744816 0.5179952164353201
-73.85257301808066 -6.16351500497978 0.5115756408809433
-73.3518776077886 -6.129447319086937 0.5051824331929085
-72.85118219749653 -6.0952731907536535 0.4988158937981433
-72.35048678720445 -6.060993035667325 0.4924763231235898
-71.84979137691238 -6.026607269515333 0.48616402159617755
-71.34909596662031 -5.99211630798508 0.47987928964283966
-70.84840055632823 -5.957520566763927 0.47362242769051455
-70.34770514603616 -5.922820461539283 0.4673937361661318
-69.8470097357441 -5.888016407998501 0.4611935154966227
-69.34631432545201 -5.853108821828991 0.45502206610892926
-68.84561891515995 -5.818098118718149 0.4488796884299864
-68.34492350486788 -5.782984714353342 0.4427666828867147
-67.8442280945758 -5.7477690244219435 0.43668334990605806
-67.34353268428373 -5.712451464611378 0.4306299899149566
-66.84283727399166 -5.6770324506089995 0.42460690334032924
-66.34214186369958 -5.641512398102195 0.41861439060911976
-65.84144645340751 -5.6058917227783756 0.41265275214826125
-65.34075104311543 -5.570170840324886 0.4067222883846868
-64.84005563282336 -5.534350166429151 0.4008232997453296
-64.3393602225313 -5.498430116778538 0.3949560866571227
-63.838664812239216 -5.462411107060442 0.38912094954699916
-63.33796940194715 -5.426293552962244 0.3833181888419046
-62.83727399165508 -5.39007787017132 0.3775481049687597
-62.336578581363 -5.353764474375071 0.37181099835449927
-61.83588317107093 -5.317353781260858 0.36610716942606003
-61.335187760778865 -5.280846206516104 0.36043691861038396
-60.834492350486784 -5.2442421658281635 0.35480054633439173
-60.333796940194716 -5.207542074884438 0.34919835302503066
-59.83310152990265 -5.170746349372303 0.3436306391092232
-59.33240611961057 -5.13385540497916 0.33809770501390246
-58.8317107093185 -5.09686965739237 0.332599851166014
-58.33101529902643 -5.059789522299335 0.327137377992482
-57.83031988873435 -5.022615415387458 0.3217105859202467
-57.329624478442284 -4.985347752344092 0.3163197753762377
-56.82892906815022 -4.947986948856633 0.310965246787388
-56.328233657858135 -4.910533420612483 0.3056473005806415
-55.82753824756607 -4.872987583299002 0.3003662371829241
-55.326842837273986 -4.835349852603608 0.2951223570211725
-54.82614742698192 -4.797620644213646 0.28991596052231094
-54.32545201668985 -4.759800373816519 0.2847473481132796
-53.82475660639777 -4.721889457099637 0.2796168202210241
-53.3240611961057 -4.68388830975036 0.2745246772724632
-52.823365785813635 -4.645797347456069 0.26947121969453547
-52.322670375521554 -4.607616985904182 0.26445674791418106
-51.82197496522949 -4.569347640782029 0.25948156235832776
-51.321279554937405 -4.530989727777042 0.2545459634539087
-50.82058414464535 -4.49254366257661 0.24965025162786048
-50.31988873435327 -4.454009860868085 0.24479472730711094
-49.81919332406119 -4.415388738338878 0.23997969091860916
-49.318497913769136 -4.37668071067637 0.23520544288927403
-48.817802503477054 -4.337886193567934 0.23047228364604755
-48.31710709318497 -4.299005602700975 0.22578051361585927
-47.81641168289292 -4.260039353762865 0.2211304332256423
-47.31571627260084 -4.220987862441001 0.21652234290233685
-46.81502086230876 -4.181851544422743 0.21195654307287248
-46.3143254520167 -4.142630815395501 0.2074333341641894
-45.81363004172462 -4.10332609104667 0.20295301660321363
-45.31293463143254 -4.063937787063617 0.1985158908168818
-44.81223922114049 -4.024466319133724 0.19412225723212706
-44.311543810848406 -3.984912102944387 0.1897724162758896
-43.810848400556324 -3.945275554182979 0.1854666683750954
-43.31015299026427 -3.905557088536897 0.1812053139566776
-42.80945757997219 -3.8657571216935356 0.17698865344757286
-42.30876216968011 -3.8258760693402696 0.1728169872747214
-41.808066759388026 -3.785914347164466 0.16869061586505274
-41.30737134909597 -3.745872370853556 0.16460983964549647
-40.80667593880389 -3.7057505560948787 0.1605749590429928
-40.30598052851181 -3.6655493185758505 0.15658627448447837
-39.80528511821976 -3.625269073983846 0.1526440863968792
-39.304589707927676 -3.5849102380062536 0.1487486952071284
-38.803894297635594 -3.5444732263304406 0.14490040134216264
-38.30319888734354 -3.503958454643838 0.14109950522892922
-37.80250347705146 -3.4633663386337776 0.13734630729433994
-37.30180806675938 -3.4226972939876763 0.13364110796533857
-36.801112656467325 -3.3819517363929226 0.12998420766886887
-36.30041724617524 -3.3411300815368907 0.12637590683184974
-35.79972183588316 -3.300232745106948 0.12281650588121429
-35.29902642559111 -3.2592601427905326 0.11930630524391339
-34.79833101529903 -3.218212690274976 0.1158456053468695
-34.297635605006946 -3.1770908032476886 0.11243470661701216
-33.79694019471489 -3.1358948973960725 0.1090739094812887
-33.29624478442281 -3.094625388407474 0.10576351436662157
-32.79554937413073 -3.0532826919693097 0.10250382169995453
-32.294853963838676 -3.011867223768961 0.09929513190821004
-31.794158553546595 -2.9703793994937815 0.09613774541832476
-31.293463143254513 -2.9288196348312017 0.09303196265724245
-30.79276773296246 -2.887188345468596 0.08997808405188912
-30.29207232267038 -2.845485947093339 0.08697641002920498
-29.791376912378297 -2.8037128553928117 0.08402724101610537
-29.290681502086244 -2.761869486054424 0.08113087743955183
-28.789986091794162 -2.719956254765515 0.0782876197264597
-28.28929068150208 -2.677973577213523 0.0754977683037692
-27.788595271210028 -2.6359218690858217 0.07276162359842053
-27.287899860917946 -2.5938015460697645 0.07007948603732195
-26.787204450625865 -2.5516130238527683 0.06745165604744208
-26.28650904033381 -2.5093567181222287 0.06487843405569627
-25.78581363004173 -2.4670330445654916 0.06236012048902473
-25.28511821974965 -2.4246424188699667 0.05989701577435347
-24.784422809457595 -2.382185256723057 0.057489420338619146
-24.283727399165514 -2.3396619738120936 0.05513763460875487
-23.783031988873432 -2.2970729858245225 0.052841959011700856
-23.28233657858135 -2.2544187084477034 0.050602693974383106
-22.781641168289298 -2.211699557369011 0.04842013992374539
-22.280945757997216 -2.16891594827584 0.04629459728672081
-21.780250347705135 -2.12606829685558 0.04422636649023182
-21.27955493741308 -2.0831570187956476 0.042215747961225736
-20.778859527121 -2.04018252978336 0.040263042126625015
-20.27816411682892 -1.9971452455061414 0.03836854941336987
-19.777468706536865 -1.9540455816513802 0.03653257024838985
-19.276773296244784 -1.910883953906465 0.034755405058635835
-18.776077885952702 -1.867660777958763 0.03303735427101606
-18.27538247566065 -1.824376469495677 0.03137871831247785
-17.774687065368568 -1.7810314442045883 0.02977979760995786
-17.273991655076486 -1.7376261177728782 0.0282408925903892
-16.773296244784433 -1.6941609058879212 0.026762303680701427
-16.27260083449235 -1.6506362242371342 0.025344331307831203
-15.77190542420027 -1.6070524885078914 0.023987275898708083
-15.271210013908217 -1.563410114387553 0.022691437880275833
-14.770514603616135 -1.5197095175635358 0.021457117679460458
-14.269819193324054 -1.4759511137232 0.020284615723198618
-13.769123783032 -1.4321353185539625 0.01917423243841987
-13.268428372739919 -1.3882625477431834 0.018126268252064426
-12.767732962447838 -1.3443332169782582 0.017141023591061844
-12.267037552155784 -1.3003477419465685 0.016218798882348784
-11.766342141863703 -1.2563065383354957 0.015359894552858355
-11.265646731571621 -1.2122100218324352 0.014564611029527219
-10.764951321279568 -1.168058608124797 0.013833248739292037
-10.264255910987487 -1.1238527128999056 0.013166108109075259
-9.763560500695405 -1.079598748261474 0.012556272600834487
-9.262865090403352 -1.036001251738527 0.01195069541029209
-8.76216968011127 -0.9931417246175248 0.011396926286509046
-8.261474269819189 -0.948040055632823 0.010868080667593875
-7.760778859527136 -0.8919577190542439 0.010297287899860934
