Polar data for NACA 0012 at Re = 627586.2068965518
Alpha (deg) Cl Cd
-180.0 -19.092384842919635 2.3340911695467046
-179.49930458970792 -19.0644831241785 2.327980101285805
-178.99860917941587 -19.03622307921635 2.32182609651238
-178.49791376912378 -19.007606568839456 2.315629499490079
-177.9972183588317 -18.978635453854103 2.309390654482547
-177.49652294853965 -18.949311595066618 2.303109905753427
-176.99582753824757 -18.919636853283258 2.2967875975663627
-176.4951321279555 -18.88961308931031 2.2904240741850064
-175.99443671766343 -18.859242163954093 2.284019679872994
-175.49374130737135 -18.82852593802088 2.2775747588939783
-174.99304589707927 -18.79746627231696 2.2710896555116022
-174.49235048678722 -18.76606502764863 2.2645647139895075
-173.99165507649514 -18.734324064822196 2.258000278591341
-173.49095966620305 -18.702245244643898 2.251396693580748
-172.990264255911 -18.66983042792006 2.2447543032213737
-172.48956884561892 -18.637081475456988 2.2380734517768666
-171.98887343532684 -18.604000248060977 2.2313544835108665
-171.48817802503476 -18.57058860653828 2.2245977426870223
-170.9874826147427 -18.53684841169521 2.2178035735689754
-170.48678720445062 -18.50278152433804 2.2109723204203746
-169.98609179415854 -18.468389805273098 2.2041043275048633
-169.4853963838665 -18.43367511530662 2.1971999390860866
-168.9847009735744 -18.398639315244957 2.1902594994276914
-168.48400556328232 -18.363284265894386 2.1832833527933193
-167.98331015299027 -18.327611828061137 2.176271843446619
-167.4826147426982 -18.291623862551575 2.1692253156512322
-166.9819193324061 -18.255322230171977 2.1621441136708093
-166.48122392211405 -18.218708791728595 2.1550285817689883
-165.98052851182197 -18.181785408027757 2.1478790642094214
-165.4798331015299 -18.144553939875742 2.140695905255747
-164.97913769123784 -18.1070162480788 2.133479449171615
-164.47844228094576 -18.06917419344331 2.126230040220671
-163.97774687065368 -18.031029636775507 2.1189480226665545
-163.47705146036162 -17.992584438881657 2.111633740772916
-162.97635605006954 -17.953840460568117 2.1042875388034012
-162.47566063977746 -17.91479956264113 2.0969097610216476
-161.9749652294854 -17.875463605907008 2.089500751691311
-161.47426981919332 -17.835834451172026 2.0820608550760262
-160.97357440890124 -17.795913959242483 2.074590415439447
-160.4728789986092 -17.755703990924665 2.0670897770452132
-159.9721835883171 -17.715206407024887 2.0595592841569736
-159.47148817802503 -17.674423068349398 2.051999281038368
-158.97079276773297 -17.633355835704542 2.0444101119530504
-158.4700973574409 -17.59200656989656 2.0367921211646536
-157.9694019471488 -17.550377131731757 2.0291456529368332
-157.46870653685676 -17.508469382016422 2.0214710515332293
-156.96801112656468 -17.466285181556877 2.0137686612174868
-156.4673157162726 -17.42382639115936 2.0060388262532545
-155.96662030598054 -17.381094871630204 1.9982818909041775
-155.46592489568846 -17.33809248377569 1.990498199433894
-154.96522948539638 -17.294821088402095 1.982688096106056
-154.46453407510432 -17.251282546315714 1.9748519251843053
-153.96383866481224 -17.207478718322868 1.966990030932287
-153.46314325452016 -17.163411465229807 1.9591027576136515
-152.9624478442281 -17.119082647842838 1.9511904494920387
-152.46175243393603 -17.074494126968254 1.9432534508310937
-151.96105702364395 -17.02964776341232 1.9352921058944617
-151.4603616133519 -16.984545417981373 1.9273067589457895
-150.9596662030598 -16.93918895148169 1.9192977542487224
-150.45897079276773 -16.89358022471952 1.9112654360669072
-149.95827538247568 -16.847721098501218 1.9032101486639839
-149.4575799721836 -16.80161343363303 1.8951322363035992
-148.9568845618915 -16.75525909092125 1.8870320432493983
-148.45618915159943 -16.7086599311722 1.8789099137650318
-147.95549374130738 -16.66181781519213 1.8707661921141359
-147.4547983310153 -16.614734603787362 1.862601222560361
-146.95410292072324 -16.567412157764174 1.8544153493673523
-146.45340751043116 -16.519852337928832 1.846208916798755
-145.95271210013908 -16.47205700508767 1.8379822691182088
-145.452016689847 -16.424028020046983 1.8297357505893697
-144.95132127955495 -16.375767243613005 1.8214697054758702
-144.45062586926286 -16.327276536592073 1.8131844780413644
-143.94993045897078 -16.27855775979048 1.8048804125494922
-143.44923504867873 -16.229612774014477 1.7965578532639022
-142.94853963838665 -16.180443440070412 1.788217144448243
-142.44784422809457 -16.131051618764538 1.7798586303661494
-141.9471488178025 -16.08143917090313 1.7714826552812752
-141.44645340751043 -16.031607957292515 1.7630895634572603
-140.94575799721835 -15.981559838738981 1.7546796991577516
-140.44506258692627 -15.931296676048795 1.746253406646396
-139.94436717663422 -15.88082033002825 1.7378110301868386
-139.44367176634213 -15.830132661483667 1.729352914042721
-138.94297635605005 -15.77923553122131 1.720879402477692
-138.442280945758 -15.728130800047474 1.712390839755395
-137.94158553546592 -15.676820328768478 1.7038875701394733
-137.44089012517384 -15.625305978190546 1.6953699378935791
-136.94019471488178 -15.573589609120042 1.6868382872813505
-136.4394993045897 -15.521673082363215 1.6782929625664291
-135.93880389429762 -15.469558258726344 1.6697343080124707
-135.43810848400557 -15.417246999015767 1.661162667883115
-134.9374130737135 -15.364741164037746 1.6525783864420056
-134.4367176634214 -15.31204261459856 1.643981807952791
-133.93602225312935 -15.259153211504533 1.6353732766791165
-133.43532684283727 -15.206074815561927 1.62675313688462
-132.9346314325452 -15.152809287577064 1.6181217328329573
-132.43393602225314 -15.09935848835618 1.6094794087877649
-131.93324061196105 -15.045724278705613 1.600826509012693
-131.43254520166897 -14.991908519431654 1.5921633777713833
-130.93184979137692 -14.937913071340581 1.5834903593274845
-130.43115438108484 -14.883739795238661 1.5748077979446382
-129.93045897079276 -14.829390551932242 1.5661160378864931
-129.4297635605007 -14.774867202227561 1.5574154234166926
-128.92906815020862 -14.720171606930897 1.54870629879888
-128.42837273991654 -14.665305626848628 1.539989008296704
-127.92767732962449 -14.610271122786962 1.5312638961738028
-127.4269819193324 -14.55506995555222 1.5225313066938302
-126.92628650904032 -14.499703985950667 1.5137915841204244
-126.42559109874827 -14.444175074788681 1.505045072717241
-125.92489568845619 -14.388485082872414 1.4962921167479113
-125.42420027816411 -14.332635871008286 1.4875330604760908
-124.92350486787205 -14.276629300002504 1.4787682481654176
-124.42280945757997 -14.220467230661377 1.469998024079537
-123.92211404728789 -14.16415152379124 1.4612227324821045
-123.42141863699584 -14.107684040198329 1.4524427176367531
-122.92072322670376 -14.051066640688951 1.443658323807135
-122.42002781641168 -13.994301186069414 1.4348698952568917
-121.91933240611961 -13.937389537145997 1.4260777762496666
-121.41863699582754 -13.880333554724977 1.4172823110491102
-120.91794158553546 -13.823135099612664 1.4084838439188676
-120.41724617524339 -13.765796032615349 1.3996827191225805
-119.91655076495132 -13.708318214539311 1.3908792809238921
-119.41585535465924 -13.650703506190844 1.3820738735864548
-118.91515994436718 -13.59295376837624 1.3732668413739066
-118.41446453407511 -13.535070861901808 1.3644585285498962
-117.91376912378303 -13.47705664757381 1.3556492793780652
-117.41307371349096 -13.418912986198542 1.3468394381220676
-116.91237830319889 -13.36064173858231 1.338029349045538
-116.41168289290681 -13.302244765531391 1.3292193564121249
-115.91098748261474 -13.243723927852066 1.3204098044854735
-115.41029207232268 -13.18508108635067 1.3116010375292362
-114.9095966620306 -13.12631810183347 1.3027933998070456
-114.40890125173853 -13.067436835106726 1.2939872355825557
-113.90820584144646 -13.008439146976762 1.2851828891194064
-113.40751043115438 -12.949326898249858 1.2763807046812445
-112.90681502086231 -12.890101949732305 1.267581026531719
-112.40611961057024 -12.830766162230397 1.258784198934471
-111.90542420027816 -12.771321396550427 1.2499905661531479
-111.4047287899861 -12.711769513498702 1.2412004724513928
-110.90403337969401 -12.652112373881444 1.2324142620928509
-110.40333796940195 -12.592351838505046 1.2236322793411691
-109.90264255910988 -12.5324897681757 1.2148548684599891
-109.4019471488178 -12.472528023699788 1.2060823737129613
-108.90125173852573 -12.412468465883528 1.1973151393637256
-108.40055632823366 -12.352312955533257 1.1885535096759305
-107.89986091794158 -12.292063353455212 1.1797978289132143
-107.39916550764951 -12.231721520455757 1.1710484413392326
-106.89847009735745 -12.171289317341113 1.1623056912176253
-106.39777468706536 -12.110768604917602 1.1535699228120357
-105.8970792767733 -12.050161243991532 1.1448414803861144
-105.39638386648123 -11.98946909536921 1.1361207082035012
-104.89568845618915 -11.928694019856827 1.1274079505278412
-104.39499304589708 -11.86783787826078 1.1187035516227866
-103.89429763560501 -11.806902531387315 1.1100078557519772
-103.39360222531293 -11.745889840042757 1.1013212071790566
-102.89290681502086 -11.684801665033298 1.0926439501676661
-102.3922114047288 -11.623639867165359 1.0839764289814617
-101.89151599443672 -11.562406307245148 1.0753189878840814
-101.39082058414465 -11.501102846078986 1.0666719711391757
-100.89012517385257 -11.439731344473152 1.058035723010386
-100.3894297635605 -11.378293663233926 1.0494105877613507
-99.88873435326843 -11.316791663167642 1.040796909655727
-99.38803894297635 -11.255227205080537 1.0321950329571568
-98.88734353268428 -11.193602149778918 1.023605301929278
-98.38664812239222 -11.131918358069107 1.0150280608357463
-97.88595271210013 -11.070177690757369 1.0064636539401963
-97.38525730180807 -11.00838200865001 0.9979124255062803
-96.884561891516 -10.946533172553309 0.9893747197976452
-96.38386648122392 -10.884633043273517 0.9808508810779255
-95.88317107093185 -10.822683481616998 0.9723412536107805
-95.38247566063978 -10.760686348390017 0.9638461816598429
-94.8817802503477 -10.698643504398838 0.9553660094887615
-94.38108484005564 -10.636556810449768 0.9469010813611867
-93.88038942976357 -10.57442812734913 0.9384517415407583
-93.37969401947149 -10.51225931590313 0.9300183342911197
-92.87899860917942 -10.450052236918161 0.9216012038759214
-92.37830319888734 -10.38780875120046 0.9132006945588085
-91.87760778859527 -10.325530719556347 0.9048171506034208
-91.3769123783032 -10.263220002792046 0.8964509162734071
-90.87621696801112 -10.200878461713906 0.888102335832416
-90.37552155771905 -10.138507957128219 0.8797717535440821
-89.87482614742699 -10.076110349841237 0.8714595136720646
-89.3741307371349 -10.01368750065928 0.8631659604799928
-88.87343532684284 -9.951241270388657 0.8548914382315242
-88.37273991655077 -9.888773519835603 0.8466362911902969
-87.87204450625869 -9.826286109806496 0.8384008636199631
-87.37134909596662 -9.763780901107502 0.8301854997841591
-86.87065368567455 -9.701259754545042 0.8219905439465371
-86.36995827538247 -9.63872453092528 0.8138163403707388
-85.8692628650904 -9.576177091054625 0.8056632333204092
-85.36856745479834 -9.513619295739296 0.7975315670591971
-84.86787204450626 -9.451053005785631 0.7894216858507441
-84.36717663421419 -9.388480081999852 0.7813339339586935
-83.86648122392211 -9.32590238518835 0.7732686556466994
-83.36578581363004 -9.263321776157305 0.7652261951783963
-82.86509040333797 -9.200740115713053 0.757206896817431
-82.36439499304589 -9.138159264661944 0.7492111048274595
-81.86369958275382 -9.075581083810171 0.7412391634721125
-81.36300417246176 -9.013007433964098 0.7332914170150406
-80.86230876216968 -8.950440175929934 0.725368209719889
-80.36161335187761 -8.887881170514099 0.7174698858503099
-79.86091794158554 -8.825332278522772 0.7095967896699378
-79.36022253129346 -8.76279536076229 0.701749265442416
-78.85952712100139 -8.700272278038916 0.6939276574314057
-78.35883171070932 -8.637764891158945 0.6861323099005325
-77.85813630041724 -8.575275060928725 0.678363567113454
-77.35744089012518 -8.512804648154493 0.6706217733338207
-76.85674547983311 -8.450355513642513 0.6629072728252545
-76.35605006954103 -8.387929518199151 0.6552204098514274
-75.85535465924896 -8.325528522630641 0.6475615286759648
-75.35465924895689 -8.263154387743292 0.6399309735625245
-74.85396383866481 -8.200808974343424 0.6323290887747461
-74.35326842837274 -8.138494143237288 0.6247562185762767
-73.85257301808066 -8.076211755231164 0.6172127072307525
-73.3518776077886 -8.0139636711314 0.609698899001831
-72.85118219749653 -7.951751751744219 0.6022151381531486
-72.35048678720445 -7.889577857875928 0.5947617689483558
-71.84979137691238 -7.827443850332877 0.5873391356510993
-71.34909596662031 -7.765351589921288 0.5799475825250191
-70.84840055632823 -7.703302937447496 0.5725874538337585
-70.34770514603616 -7.641299753717796 0.5652590938409752
-69.8470097357441 -7.579343899538408 0.5579628468102946
-69.34631432545201 -7.517437235715683 0.5506990570053816
-68.84561891515995 -7.455581623055885 0.5434680686898687
-68.34492350486788 -7.39377892236535 0.5362702261273995
-67.8442280945758 -7.3320309944502995 0.5291058735816314
-67.34353268428373 -7.270339700117113 0.5219753553162008
-66.84283727399166 -7.208706900172011 0.5148790155947545
-66.34214186369958 -7.147134455421302 0.5078171986809359
-65.84144645340751 -7.085624226671278 0.5007902488383955
-65.34075104311543 -7.024178074728219 0.4937985103307696
-64.84005563282336 -6.962797860398446 0.48684232742170863
-64.3393602225313 -6.901485444488209 0.4799220443748595
-63.838664812239216 -6.84024268780383 0.4730380054538621
-63.33796940194715 -6.7790714511516015 0.46619055492237393
-62.83727399165508 -6.717973595337817 0.4593800370440242
-62.336578581363 -6.656950981168713 0.4526067960824598
-61.83588317107093 -6.5960054694506525 0.44587117630133477
-61.335187760778865 -6.535138920989901 0.43917352196429604
-60.834492350486784 -6.474353196592723 0.4325141773349799
-60.333796940194716 -6.413650157065426 0.4258934866770332
-59.83310152990265 -6.353031663214317 0.4193117942541029
-59.33240611961057 -6.292499575845689 0.4127694443298324
-58.8317107093185 -6.232055755765778 0.4062667811678615
-58.33101529902643 -6.171702063780948 0.39980414903185135
-57.83031988873435 -6.111440360697465 0.3933818921854346
-57.329624478442284 -6.051272507321578 0.38700035489226536
-56.82892906815022 -5.991200364459608 0.38065988141597273
-56.328233657858135 -5.931225792917878 0.3743608160202143
-55.82753824756607 -5.871350653502667 0.36810350296863703
-55.326842837273986 -5.811576807020209 0.3618882865248807
-54.82614742698192 -5.751906114276871 0.3557155109525887
-54.32545201668985 -5.69234043607883 0.3495855205154079
-53.82475660639777 -5.632881633232508 0.3434986594769853
-53.3240611961057 -5.5735315665441405 0.3374552721009678
-52.823365785813635 -5.514292096820036 0.33145570265099167
-52.322670375521554 -5.455165084866444 0.325500295390718
-51.82197496522949 -5.3961523914897 0.319589394583776
-51.321279554937405 -5.337255877496041 0.31372334449381967
-50.82058414464535 -5.2784774036918165 0.3079024893844853
-50.31988873435327 -5.219818830883277 0.30212717351942686
-49.81919332406119 -5.161282019876772 0.29639774116229134
-49.318497913769136 -5.10286883147851 0.29071453657671853
-48.817802503477054 -5.04458112649484 0.28507790402634825
-48.31710709318497 -4.986420765731985 0.279488187774831
-47.81641168289292 -4.928389609996323 0.2739457320858172
-47.31571627260084 -4.870489520094104 0.2684508812229467
-46.81502086230876 -4.812722356831607 0.2630039794498664
-46.3143254520167 -4.755089981015168 0.2576053710302162
-45.81363004172462 -4.697594253451022 0.25225540022765003
-45.31293463143254 -4.6402370349454785 0.24695441130580775
-44.81223922114049 -4.583020186304843 0.24170274852833273
-44.311543810848406 -4.525945568335409 0.23650075615886834
-43.810848400556324 -4.469015041843427 0.23134877846106505
-43.31015299026427 -4.412230467635261 0.22624715969857334
-42.80945757997219 -4.3555937065170625 0.22119624413502237
-42.30876216968011 -4.2991066192953085 0.21619637603406971
-41.808066759388026 -4.2427710667761644 0.2112478996593552
-41.30737134909597 -4.186588909765938 0.2063511592745364
-40.80667593880389 -4.130562009070992 0.20150649914323893
-40.30598052851181 -4.0746922254975075 0.1967142635291168
-39.80528511821976 -4.018981419851862 0.19197479669582052
-39.304589707927676 -3.96343145294032 0.18728844290698987
-38.803894297635594 -3.908044185569146 0.18265554642626114
-38.30319888734354 -3.852821478544662 0.17807645151729545
-37.80250347705146 -3.797765192673161 0.17355150244372552
-37.30180806675938 -3.742877188760822 0.1690810434692125
-36.801112656467325 -3.6881593276141373 0.16466541885738195
-36.30041724617524 -3.633613470039286 0.16030497287188794
-35.79972183588316 -3.579241476842533 0.15600004977637383
-35.29902642559111 -3.525045208830228 0.1517509938344972
-34.79833101529903 -3.4710265268086076 0.14755814930987654
-34.297635605006946 -3.4171872915840495 0.14342186046618366
-33.79694019471489 -3.3635293639627335 0.13934247156705482
-33.29624478442281 -3.3100546047510093 0.13532032687612272
-32.79554937413073 -3.2567648747551985 0.13135577065705561
-32.294853963838676 -3.203662034781537 0.12744914717347555
-31.794158553546595 -3.1507479456363185 0.12360080068904367
-31.293463143254513 -3.098024468125864 0.11981107546739267
-30.79276773296246 -3.0454934630564097 0.11608031577218014
-30.29207232267038 -2.9931567912343624 0.1124088658670459
-29.791376912378297 -2.941016313465873 0.10879707001562977
-29.290681502086244 -2.88907389055732 0.10524527248158932
-28.789986091794162 -2.837331383314968 0.10175381752855017
-28.28929068150208 -2.7857906525450815 0.0983230494201841
-27.788595271210028 -2.7344535590540673 0.09495331242011318
-27.287899860917946 -2.6833219636480194 0.09164495079198431
-26.787204450625865 -2.6323977271334016 0.0883983087994622
-26.28650904033381 -2.5816827103164783 0.08521373070617244
-25.78581363004173 -2.5311787740034575 0.08209156077577617
-25.28511821974965 -2.480887779000632 0.07903214327189545
-24.784422809457595 -2.4308115861144373 0.07603582245819496
-24.283727399165514 -2.380952056150967 0.07310294259830741
-23.783031988873432 -2.331311049916657 0.07023384795589394
-23.28233657858135 -2.281890428217743 0.0674288827945837
-22.781641168289298 -2.232692051860518 0.06468839137802362
-22.280945757997216 -2.183717781651275 0.06201271796988195
-21.780250347705135 -2.134969478396279 0.05940220683376651
-21.27955493741308 -2.086449002901908 0.05685720223334556
-20.778859527121 -2.0381582159743417 0.05437804843225891
-20.27816411682892 -1.990098978419958 0.05196508969415703
-19.777468706536865 -1.9422731510449651 0.0496186702826833
-19.276773296244784 -1.8946825946557126 0.04733913446147042
-18.776077885952702 -1.8473291700585222 0.04512682649417599
-18.27538247566065 -1.8002147380596014 0.042982090644450466
-17.774687065368568 -1.7533411594653288 0.040905271175919466
-17.273991655076486 -1.7067102950818835 0.038896712352247675
-16.773296244784433 -1.660324005715644 0.036956758437067805
-16.27260083449235 -1.6141841521729035 0.035085753694023225
-15.77190542420027 -1.5682925952598978 0.03328404238677862
-15.271210013908217 -1.5226511957829771 0.03155196877895605
-14.770514603616135 -1.4772618145483776 0.029889877134213094
-14.269819193324054 -1.432126312362449 0.02829811171619312
-13.769123783032 -1.3872465500313709 0.026777016788535946
-13.268428372739919 -1.3426243883615498 0.025326936614888496
-12.767732962447838 -1.298261688159279 0.023948215458904798
-12.267037552155784 -1.2541603102307661 0.02264119758422467
-11.766342141863703 -1.2103221153823327 0.021406227254484378
-11.265646731571621 -1.1667489644203002 0.02024364873333795
-10.764951321279568 -1.1234427181509332 0.019153806284432306
-10.264255910987487 -1.0804052373805249 0.01813704417140727
-9.763560500695405 -1.0376080667593877 0.017185493741307362
-9.262865090403352 -0.9965560500695421 0.016125618915159977
-8.76216968011127 -0.9559746870653689 0.015119471488178033
