Polar data for NACA 0012 at Re = 78620.68965517242
Alpha (deg) Cl Cd
-180.0 -2.4718753262654154 0.48007033670033655
-179.49930458970792 -2.4808869356222054 0.48184823833088536
-178.99860917941587 -2.489855589878583 0.48362076124001724
-178.49791376912378 -2.498780962993062 0.4853877938523697
-177.9972183588317 -2.507662728924161 0.48714922459257953
-177.49652294853965 -2.51650056163039 0.4889049418852834
-176.99582753824757 -2.5252941350702667 0.4906548341551192
-176.4951321279555 -2.534043123202303 0.49239878982672286
-175.99443671766343 -2.5427471999850155 0.49413669732473126
-175.49374130737135 -2.5514060393769187 0.4958684450737825
-174.99304589707927 -2.5600193153365263 0.49759392149851217
-174.49235048678722 -2.568586701822353 0.4993130150235581
-173.99165507649514 -2.577107872792914 0.5010256140735567
-173.49095966620305 -2.585582502206723 0.5027316070731456
-172.990264255911 -2.5940102640222964 0.504430882446961
-172.48956884561892 -2.6023908321981466 0.5061233286196398
-171.98887343532684 -2.610723880692789 0.5078088340158193
-171.48817802503476 -2.6190090834647384 0.5094872870601368
-170.9874826147427 -2.6272461144725074 0.5111585761772282
-170.48678720445062 -2.6354346476746144 0.5128225897917316
-169.98609179415854 -2.6435743570295713 0.5144792163282828
-169.4853963838665 -2.6516649164958945 0.5161283442115197
-168.9847009735744 -2.659706000032095 0.5177698618660793
-168.48400556328232 -2.6676972815966904 0.519403657716597
-167.98331015299027 -2.675638435148195 0.5210296201877116
-167.4826147426982 -2.6835291346451227 0.5226476377040585
-166.9819193324061 -2.691369054045988 0.524257598690276
-166.48122392211405 -2.6991578673093066 0.5258593915710001
-165.98052851182197 -2.7068952483935904 0.5274529047708678
-165.4798331015299 -2.7145808712573585 0.5290380267145169
-164.97913769123784 -2.722214409859122 0.5306146458265832
-164.47844228094576 -2.7297955381573944 0.5321826505317042
-163.97774687065368 -2.737323930110695 0.5337419292545171
-163.47705146036162 -2.7447992596775332 0.5352923704196584
-162.97635605006954 -2.752221200816426 0.5368338624517655
-162.47566063977746 -2.7595894274858885 0.5383662937754741
-161.9749652294854 -2.766903613644435 0.5398895528154226
-161.47426981919332 -2.77416343325058 0.5414035279962477
-160.97357440890124 -2.7813685602628366 0.5429081077425852
-160.4728789986092 -2.788518668639721 0.5444031804790732
-159.9721835883171 -2.7956134323397483 0.5458886346303482
-159.47148817802503 -2.80265252532143 0.547364358621047
-158.97079276773297 -2.8096356215432827 0.5488302408758066
-158.4700973574409 -2.8165623949638237 0.5502861698192649
-157.9694019471488 -2.823432519541563 0.5517320338760572
-157.46870653685676 -2.8302456692350173 0.5531677214708219
-156.96801112656468 -2.837001518002701 0.5545931210281947
-156.4673157162726 -2.843699739803129 0.5560081209728134
-155.96662030598054 -2.850340008594814 0.5574126097293142
-155.46592489568846 -2.856921998336273 0.5588064757223346
-154.96522948539638 -2.8634453829860202 0.560189607376512
-154.46453407510432 -2.8699098365025684 0.5615618931164823
-153.96383866481224 -2.876315032844434 0.5629232213668827
-153.46314325452016 -2.8826606459701303 0.5642734805523504
-152.9624478442281 -2.8889463498381724 0.5656125590975221
-152.46175243393603 -2.8951718184070767 0.5669403454270352
-151.96105702364395 -2.901336725635354 0.5682567279655264
-151.4603616133519 -2.907440745481522 0.5695615951376323
-150.9596662030598 -2.9134835519040942 0.5708548353679901
-150.45897079276773 -2.9194648188615844 0.5721363370812367
-149.95827538247568 -2.925384220312508 0.5734059887020087
-149.4575799721836 -2.9312414302153806 0.5746636786549439
-148.9568845618915 -2.9370361225287143 0.5759092953646787
-148.45618915159943 -2.9427679712110253 0.5771427272558496
-147.95549374130738 -2.9484366502208283 0.5783638627530945
-147.4547983310153 -2.954041833516637 0.5795725902810496
-146.95410292072324 -2.9595831950569673 0.5807687982643519
-146.45340751043116 -2.9650604088003325 0.5819523751276392
-145.95271210013908 -2.9704731487052465 0.5831232092955474
-145.452016689847 -2.9758210887302257 0.5842811891927129
-144.95132127955495 -2.9811039028337847 0.5854262032437743
-144.45062586926286 -2.9863212649744373 0.5865581398733677
-143.94993045897078 -2.991472849110698 0.5876768875061302
-143.44923504867873 -2.996558329201081 0.5887823345666987
-142.94853963838665 -3.0015773792041003 0.5898743694797088
-142.44784422809457 -3.006529673078272 0.5909528806697995
-141.9471488178025 -3.01141488478211 0.5920177565616069
-141.44645340751043 -3.0162326882741315 0.5930688855797688
-140.94575799721835 -3.0209827575128454 0.5941061561489203
-140.44506258692627 -3.0256647664567717 0.5951294566936993
-139.94436717663422 -3.0302783890644216 0.5961386756387428
-139.44367176634213 -3.0348232992943096 0.5971337014086877
-138.94297635605005 -3.0392991711049513 0.5981144224281707
-138.442280945758 -3.043705678454865 0.5990807271218297
-137.94158553546592 -3.0480424953025587 0.6000325039143004
-137.44089012517384 -3.052309295606551 0.6009696412302199
-136.94019471488178 -3.0565057533253537 0.6018920274942257
-136.4394993045897 -3.060631542417484 0.6027995511309543
-135.93880389429762 -3.064686336841457 0.6036921005650435
-135.43810848400557 -3.068669810555785 0.6045695642211286
-134.9374130737135 -3.072581637518983 0.605431830523848
-134.4367176634214 -3.076421491689568 0.6062787878978386
-133.93602225312935 -3.0801890470260505 0.6071103247677361
-133.43532684283727 -3.0838839774869466 0.6079263295581785
-132.9346314325452 -3.087505957030772 0.608726690693802
-132.43393602225314 -3.0910546596160424 0.6095112965992449
-131.93324061196105 -3.0945297592012695 0.6102800356991427
-131.43254520166897 -3.0979309297449698 0.6110327964181326
-130.93184979137692 -3.101257845205655 0.6117694671808518
-130.43115438108484 -3.104510179541843 0.6124899364119378
-129.93045897079276 -3.1076876067120454 0.6131940925360257
-129.4297635605007 -3.110789800674781 0.6138818239777546
-128.92906815020862 -3.1138164353885607 0.6145530191617605
-128.42837273991654 -3.1167671848118994 0.6152075665126799
-127.92767732962449 -3.1196417229033147 0.6158453544551505
-127.4269819193324 -3.1224397236213175 0.6164662714138085
-126.92628650904032 -3.1251608609244252 0.6170702058132922
-126.42559109874827 -3.12780480877115 0.6176570460782365
-125.92489568845619 -3.1303712411200078 0.6182266806332797
-125.42420027816411 -3.132859831929511 0.6187789979030589
-124.92350486787205 -3.1352702551581793 0.6193138863122105
-124.42280945757997 -3.137602184764523 0.6198312342853711
-123.92211404728789 -3.139855294707055 0.6203309302471778
-123.42141863699584 -3.1420292589442953 0.6208128626222686
-122.92072322670376 -3.1441237514347558 0.6212769198352788
-122.42002781641168 -3.146138446136951 0.621722990310847
-121.91933240611961 -3.148073017009394 0.622150962473609
-121.41863699582754 -3.1499271380106 0.6225607247482012
-120.91794158553546 -3.1517004830990887 0.6229521655592625
-120.41724617524339 -3.153392726233366 0.6233251733314287
-119.91655076495132 -3.1550035413719524 0.6236796364893362
-119.41585535465924 -3.1565326024733613 0.6240154434576222
-118.91515994436718 -3.1579795834961075 0.624332482660924
-118.41446453407511 -3.159344158398703 0.6246306425238788
-117.91376912378303 -3.160626001139666 0.6249098114711231
-117.41307371349096 -3.1618247856775072 0.6251698779272934
-116.91237830319889 -3.162940185970746 0.6254107303170278
-116.41168289290681 -3.163971875977892 0.625632257064962
-115.91098748261474 -3.164919529657465 0.6258343465957337
-115.41029207232268 -3.165782820967972 0.6260168873339793
-114.9095966620306 -3.166561423867937 0.6261797677043375
-114.40890125173853 -3.1672550123158683 0.6263228761314421
-113.90820584144646 -3.1678632602702814 0.6264461010399323
-113.40751043115438 -3.1683858416896937 0.6265493308544454
-112.90681502086231 -3.1688224305326154 0.6266324539996166
-112.40611961057024 -3.1691727007575627 0.6266953589000828
-111.90542420027816 -3.1694363263230505 0.6267379339804828
-111.4047287899861 -3.169612981187594 0.6267600676654526
-110.90403337969401 -3.1697023393097092 0.626761648379629
-110.40333796940195 -3.169704074647906 0.6267425645476479
-109.90264255910988 -3.169617861160704 0.6267027045941487
-109.4019471488178 -3.1694433728066125 0.6266419569437662
-108.90125173852573 -3.1691802835441525 0.6265602100211383
-108.40055632823366 -3.1688282673318344 0.626457352250902
-107.89986091794158 -3.168386998128173 0.626333272057694
-107.39916550764951 -3.1678561498916826 0.6261878578661502
-106.89847009735745 -3.167235396580881 0.6260209981009093
-106.39777468706536 -3.1665244121542786 0.6258325811866083
-105.8970792767733 -3.1657228705703915 0.625622495547882
-105.39638386648123 -3.164830445787735 0.6253906296093688
-104.89568845618915 -3.163846811764823 0.6251368717957062
-104.39499304589708 -3.1627716424601706 0.6248611105315294
-103.89429763560501 -3.161604611832291 0.6245632342414766
-103.39360222531293 -3.160345393839699 0.6242431313501839
-102.89290681502086 -3.1589936624409116 0.6239006902822903
-102.3922114047288 -3.157549091594441 0.6235357994624302
-101.89151599443672 -3.156011355258806 0.623148347315243
-101.39082058414465 -3.1543801273925114 0.6227382222653619
-100.89012517385257 -3.152655081954081 0.6223053127374272
-100.3894297635605 -3.1508358929020295 0.6218495071560757
-99.88873435326843 -3.148922234194865 0.621370693945942
-99.38803894297635 -3.1469137797911033 0.6208687615316653
-98.88734353268428 -3.144810203649265 0.6203435983378816
-98.38664812239222 -3.1426111797278597 0.6197950927892277
-97.88595271210013 -3.1403163819854027 0.6192231333103408
-97.38525730180807 -3.1379254843804096 0.6186276083258573
-96.884561891516 -3.1354381608713933 0.618008406260415
-96.38386648122392 -3.13285408541687 0.6173654155386503
-95.88317107093185 -3.130172931975353 0.6166985245851999
-95.38247566063978 -3.127394374505357 0.6160076218247019
-94.8817802503477 -3.124518086965397 0.6152925956817927
-94.38108484005564 -3.12154374331399 0.6145533345811078
-93.88038942976357 -3.1184710175096475 0.6137897269472865
-93.37969401947149 -3.1152995835108834 0.6130016612049642
-92.87899860917942 -3.112029115276214 0.6121890257787785
-92.37830319888734 -3.108659286764155 0.6113517090933658
-91.87760778859527 -3.105189771933217 0.6104895995733632
-91.3769123783032 -3.1016202447419206 0.6096025856434073
-90.87621696801112 -3.0979503791487746 0.6086905557281359
-90.37552155771905 -3.0941798491122947 0.607753398252185
-89.87482614742699 -3.0903083285909974 0.6067910016401921
-89.3741307371349 -3.0863354915434 0.6058032543167948
-88.87343532684284 -3.082261011928007 0.6047900447066283
-88.37273991655077 -3.078084563703343 0.6037512612343314
-87.87204450625869 -3.0738058208279186 0.6026867923245387
-87.37134909596662 -3.0694244572602516 0.6015965264018912
-86.87065368567455 -3.0649401469588495 0.6004803518910209
-86.36995827538247 -3.060352563882235 0.5993381572165686
-85.8692628650904 -3.0556613819889185 0.598169830803168
-85.36856745479834 -3.05086627523741 0.596975261075458
-84.86787204450626 -3.0459669175862336 0.5957543364580762
-84.36717663421419 -3.0409629829938973 0.594506945375658
-83.86648122392211 -3.0358541454189174 0.593232976252841
-83.36578581363004 -3.030640078819811 0.5919323175142615
-82.86509040333797 -3.0253204571550887 0.590604857584557
-82.36439499304589 -3.0198949543832656 0.5892504848883653
-81.86369958275382 -3.0143632444628574 0.5878690878503217
-81.36300417246176 -3.0087250013523805 0.5864605548950648
-80.86230876216968 -3.0029798990103496 0.5850247744472306
-80.36161335187761 -2.997127611395273 0.5835616349314556
-79.86091794158554 -2.9911678124656707 0.5820710247723764
-79.36022253129346 -2.985100176180059 0.5805528323946325
-78.85952712100139 -2.9789243764969457 0.5790069462228578
-78.35883171070932 -2.9726400873748533 0.5774332546816916
-77.85813630041724 -2.96624698277229 0.5758316461957687
-77.35744089012518 -2.959744736647771 0.5742020091897264
-76.85674547983311 -2.9531330229598165 0.5725442320882035
-76.35605006954103 -2.9464115156669353 0.5708582033158349
-75.85535465924896 -2.9395798887276454 0.5691438112972598
-75.35465924895689 -2.9326378161004554 0.567400944457112
-74.85396383866481 -2.9255849717438878 0.5656294912200315
-74.35326842837274 -2.9184210296164537 0.5638293400106524
-73.85257301808066 -2.911145663676667 0.5620003792536152
-73.3518776077886 -2.903758547883041 0.5601424973735523
-72.85118219749653 -2.896259356194096 0.5582555827951057
-72.35048678720445 -2.888647762568339 0.5563395239429074
-71.84979137691238 -2.880923440964292 0.5543942092415988
-71.34909596662031 -2.8730860653404644 0.5524195271158125
-70.84840055632823 -2.86513530965537 0.5504153659901887
-70.34770514603616 -2.8570708478675266 0.5483816142893623
-69.8470097357441 -2.84889235393545 0.5463181604379732
-69.34631432545201 -2.8405995018176524 0.5442248928606543
-68.84561891515995 -2.8321919654726457 0.5421016999820452
-68.34492350486788 -2.823669418858948 0.5399484702267825
-67.8442280945758 -2.8150315359350753 0.5377650920195023
-67.34353268428373 -2.806277990659539 0.5355514537848431
-66.84283727399166 -2.7974084569908557 0.5333074439474406
-66.34214186369958 -2.7884226088875357 0.5310329509319309
-65.84144645340751 -2.7793201203080997 0.528727863162952
-65.34075104311543 -2.7701006652110607 0.5263920690651418
-64.84005563282336 -2.760763917554929 0.5240254570631355
-64.3393602225313 -2.751309551298223 0.5216279155815717
-63.838664812239216 -2.74173724039946 0.5191993330450864
-63.33796940194715 -2.7320466588171426 0.5167395978783145
-62.83727399165508 -2.7222374805098024 0.5142485985058964
-62.336578581363 -2.7123093794359434 0.5117262233524682
-61.83588317107093 -2.7022620295540776 0.5091723608426661
-61.335187760778865 -2.6920951048227275 0.5065868994011258
-60.834492350486784 -2.681808279200406 0.5039697274524875
-60.333796940194716 -2.6714012266456217 0.5013207334213841
-59.83310152990265 -2.660873621116897 0.4986398057324551
-59.33240611961057 -2.6502251365727414 0.49592683281033817
-58.8317107093185 -2.6394554469716702 0.49318170307966885
-58.33101529902643 -2.6285642262722027 0.49040430496508486
-57.83031988873435 -2.617551148432846 0.4875945268912217
-57.329624478442284 -2.6064158874121164 0.4847522572827166
-56.82892906815022 -2.595158117168534 0.4818773845642082
-56.328233657858135 -2.5837775116606068 0.478969797160332
-55.82753824756607 -2.572273744846852 0.47602938349572527
-55.326842837273986 -2.5606464906857846 0.47305603199502394
-54.82614742698192 -2.5488954231359218 0.4700496310828666
-54.32545201668985 -2.5370202161557733 0.4670100691838897
-53.82475660639777 -2.5250205437038566 0.46393723472273046
-53.3240611961057 -2.5128960797386863 0.4608310161240244
-52.823365785813635 -2.5006464982187726 0.4576913018124105
-52.322670375521554 -2.4882714731026345 0.45451798021252393
-51.82197496522949 -2.4757706783487885 0.45131093974900277
-51.321279554937405 -2.463143787915743 0.44807006884648254
-50.82058414464535 -2.450390475762017 0.44479525592960184
-50.31988873435327 -2.4375104158461234 0.44148638942299795
-49.81919332406119 -2.424503282126576 0.4381433577513037
-49.318497913769136 -2.411368748561892 0.43476604933916124
-48.817802503477054 -2.398106489110586 0.43135435261120475
-48.31710709318497 -2.3847161777311703 0.4279081559920724
-47.81641168289292 -2.37119748838216 0.42442734790639963
-47.31571627260084 -2.35755009502207 0.42091181677882467
-46.81502086230876 -2.343773671609414 0.417361451033983
-46.3143254520167 -2.329867892102709 0.41377613909651406
-45.81363004172462 -2.315832430460465 0.41015576939105164
-45.31293463143254 -2.3016669606411986 0.40650023034223476
-44.81223922114049 -2.287371156603431 0.40280941037470114
-44.311543810848406 -2.2729446923056695 0.3990831979130854
-43.810848400556324 -2.2583872417064264 0.39532148138202655
-43.31015299026427 -2.243698478764224 0.39152414920615924
-42.80945757997219 -2.2288780774375736 0.3876910898101234
-42.30876216968011 -2.2139257116849853 0.3838221916185514
-41.808066759388026 -2.19884105546498 0.379917343056085
-41.30737134909597 -2.1836237827360723 0.3759764325473601
-40.80667593880389 -2.168273567456769 0.37199934851701083
-40.30598052851181 -2.152790083585592 0.36798597938967675
-39.80528511821976 -2.1371730050810553 0.3639362135899938
-39.304589707927676 -2.12142200590167 0.35984993954259875
-38.803894297635594 -2.105536760005954 0.35572704567212937
-38.30319888734354 -2.0895169413524233 0.3515674204032229
-37.80250347705146 -2.073362223899583 0.34737095216051356
-37.30180806675938 -2.057072281605959 0.3431375293686421
-36.801112656467325 -2.0406467884300623 0.33886704045224275
-36.30041724617524 -2.024085418330402 0.3345593738359532
-35.79972183588316 -2.0073878452655016 0.33021441794441203
-35.29902642559111 -1.9905537431938691 0.32583206120225344
-34.79833101529903 -1.973582786074019 0.32141219203411603
-34.297635605006946 -1.9564746478644708 0.31695469886463484
-33.79694019471489 -1.9392290025237375 0.31245947011845027
-33.29624478442281 -1.9218455240103307 0.3079263942201956
-32.79554937413073 -1.9043238862827645 0.3033553595945094
-32.294853963838676 -1.8866637632995624 0.29874625466602983
-31.794158553546595 -1.8688648290192253 0.2940989678593911
-31.293463143254513 -1.8509267574002763 0.28941338759923224
-30.79276773296246 -1.8328492224012318 0.28468940231019096
-30.29207232267038 -1.8146318979805962 0.27992690041690055
-29.791376912378297 -1.7962744580968961 0.2751257703440014
-29.290681502086244 -1.7777765767086444 0.2702859005161294
-28.789986091794162 -1.7591379277743455 0.2654071793579223
-28.28929068150208 -1.740358185252519 0.2604894952940134
-27.788595271210028 -1.7214370231016847 0.25553273674904303
-27.287899860917946 -1.7023741152803595 0.2505367921476494
-26.787204450625865 -1.6831691357470453 0.24550154991446488
-26.28650904033381 -1.6638217584602601 0.2404268984741303
-25.78581363004173 -1.644331657378525 0.2353127262512798
-25.28511821974965 -1.6246985064603507 0.2301589216705529
-24.784422809457595 -1.604921979664257 0.22496537315658643
-24.283727399165514 -1.585001750948752 0.21973196913401544
-23.783031988873432 -1.5649374942723464 0.21445859802747674
-23.28233657858135 -1.5447288835935675 0.2091451482616103
-22.781641168289298 -1.5243755928709184 0.2037915082610498
-22.280945757997216 -1.503877296062915 0.19839756645043255
-21.780250347705135 -1.483233667128084 0.19296321125439847
-21.27955493741308 -1.4624443800249247 0.1874883310975804
-20.778859527121 -1.4415091087119605 0.18197281440461782
-20.27816411682892 -1.4204275271477036 0.1764165496001458
-19.777468706536865 -1.3991993092906714 0.17081942510880516
-19.276773296244784 -1.3778241290993656 0.16518132935522872
-18.776077885952702 -1.35630166053232 0.159502150764056
-18.27538247566065 -1.3346315775480375 0.15378177775992158
-17.774687065368568 -1.3128135541050308 0.14802009876746364
-17.273991655076486 -1.2908472641618192 0.1422170022113181
-16.773296244784433 -1.2687323816769236 0.13637237651612583
-16.27260083449235 -1.2464685806088458 0.13048611010651784
-15.77190542420027 -1.2240555349161053 0.12455809140713586
-15.271210013908217 -1.2014929185572194 0.1185882088426145
-14.770514603616135 -1.178780405490704 0.11257635083759238
-14.269819193324054 -1.1559176696750646 0.10652240581670364
-13.769123783032 -1.1329043850688254 0.10042626220458734
-13.268428372739919 -1.1097402256304953 0.09428780842588075
-12.767732962447838 -1.0864248653185904 0.08810693290521804
-12.267037552155784 -1.0629579780916314 0.08188352406723914
-11.766342141863703 -1.03933923790812 0.07561747033658045
-11.265646731571621 -1.0155683187265832 0.06930866013787879
-10.764951321279568 -0.9916448945055307 0.0629569818957692
-10.264255910987487 -0.9675686392034717 0.05656232403489164
-9.763560500695405 -0.9433563282336576 0.05012938803894291
-9.262865090403352 -0.9227271210013913 0.04408408901251754
-8.76216968011127 -0.899777746870654 0.038823532684283776
