Polar data for NACA 0012 at Re = 1656896.5517241382
Alpha (deg) Cl Cd
-180.0 -9.720311695467082 1.9025444803406
-179.49930458970792 -9.719911679901582 1.8975018551914538
-178.99860917941587 -9.719328806922029 1.8924238474949941
-178.49791376912378 -9.718563389475957 1.887310744290783
-177.9972183588317 -9.717615740510873 1.882162832618394
-177.49652294853965 -9.716486172974296 1.8769803995173895
-176.99582753824757 -9.715174999813744 1.8717637320273353
-176.4951321279555 -9.71368253397673 1.8665131171878038
-175.99443671766343 -9.712009088410777 1.8612288420383587
-175.49374130737135 -9.7101549760634 1.8559111936185646
-174.99304589707927 -9.708120509882121 1.8505604589679958
-174.49235048678722 -9.705906002814448 1.8451769251262116
-173.99165507649514 -9.703511767807907 1.8397608791327826
-173.49095966620305 -9.70093811781 1.8343126080272754
-172.990264255911 -9.69818536576826 1.8288323988492543
-172.48956884561892 -9.695253824630207 1.823320538638292
-171.98887343532684 -9.692143807343342 1.8177773144339548
-171.48817802503476 -9.688855626855194 1.8122030132758038
-170.9874826147427 -9.685389596113279 1.8065979222034114
-170.48678720445062 -9.681746028065103 1.8009623282563396
-169.98609179415854 -9.6779252356582 1.7952965184741618
-169.4853963838665 -9.673927531840079 1.78960077989644
-168.9847009735744 -9.66975322955825 1.7838753995627439
-168.48400556328232 -9.665402641760252 1.7781206645126382
-167.98331015299027 -9.660876081393582 1.7723368617856945
-167.4826147426982 -9.656173861405758 1.7665242784214747
-166.9819193324061 -9.651296294744306 1.760683201459548
-166.48122392211405 -9.646243694356741 1.7548139179394813
-165.98052851182197 -9.641016373190578 1.748916714900842
-165.4798331015299 -9.635614644193335 1.7429918793831956
-164.97913769123784 -9.630038820312528 1.7370396984261092
-164.47844228094576 -9.624289214495676 1.7310604590691518
-163.97774687065368 -9.618366139690295 1.725054448351889
-163.47705146036162 -9.612269908843896 1.7190219533138862
-162.97635605006954 -9.606000834904016 1.7129632609947159
-162.47566063977746 -9.599559230818159 1.7068786584339408
-161.9749652294854 -9.592945409533833 1.7007684326711283
-161.47426981919332 -9.586159683998567 1.694632870745842
-160.97357440890124 -9.579202367159883 1.688472259697658
-160.4728789986092 -9.572073771965279 1.6822868865661356
-159.9721835883171 -9.564774211362291 1.6760770383908454
-159.47148817802503 -9.557303998298433 1.6698430022113495
-158.97079276773297 -9.549663445721215 1.663585065067224
-158.4700973574409 -9.54185286657816 1.657303513998027
-157.9694019471488 -9.533872573816787 1.6509986360433277
-157.46870653685676 -9.525722880384592 1.6446707182426952
-156.96801112656468 -9.517404099229125 1.6383200476357
-156.4673157162726 -9.50891654329789 1.631946911261899
-155.96662030598054 -9.50026052553839 1.625551596160868
-155.46592489568846 -9.491436358898163 1.6191343893721708
-154.96522948539638 -9.482444356324706 1.6126955779353729
-154.46453407510432 -9.47328483076556 1.6062354488900468
-153.96383866481224 -9.463958095168227 1.5997542892757526
-153.46314325452016 -9.454464462480225 1.593252386132061
-152.9624478442281 -9.44480424564907 1.5867300264985396
-152.46175243393603 -9.434977757622292 1.5801874974147516
-151.96105702364395 -9.424985311347385 1.573625085920268
-151.4603616133519 -9.41482721977189 1.5670430790546561
-150.9596662030598 -9.404503795843311 1.5604417638574795
-150.45897079276773 -9.394015352509168 1.553821427368307
-149.95827538247568 -9.383362202716981 1.547182356626708
-149.4575799721836 -9.372544659414263 1.540524838672244
-148.9568845618915 -9.361563035548524 1.533849160544488
-148.45618915159943 -9.350417644067306 1.5271556092830014
-147.95549374130738 -9.339108797918097 1.5204444719273535
-147.4547983310153 -9.327636810048432 1.513716035517115
-146.95410292072324 -9.316001993405827 1.506970587091848
-146.45340751043116 -9.304204660937792 1.5002084136911193
-145.95271210013908 -9.29224512559184 1.4934298023544983
-145.452016689847 -9.28012370031551 1.4866350401215538
-144.95132127955495 -9.2678406980563 1.4798244140318477
-144.45062586926286 -9.255396431761728 1.4729982111249527
-143.94993045897078 -9.242791214379324 1.4661567184404305
-143.44923504867873 -9.23002535885659 1.459300223017852
-142.94853963838665 -9.217099178141051 1.4524290118967826
-142.44784422809457 -9.204012985180231 1.4455433721167896
-141.9471488178025 -9.190767092921632 1.4386435907174384
-141.44645340751043 -9.177361814312775 1.4317299547382962
-140.94575799721835 -9.16379746230119 1.4248027512189338
-140.44506258692627 -9.150074349834377 1.4178622671989167
-139.94436717663422 -9.136192789859866 1.4109087897178085
-139.44367176634213 -9.122153095325178 1.4039426058151765
-138.94297635605005 -9.107955579177805 1.396964002530595
-138.442280945758 -9.093600554365288 1.3899732669036222
-137.94158553546592 -9.079088333835145 1.3829706859738309
-137.44089012517384 -9.064419230534874 1.3759565467807846
-136.94019471488178 -9.04959355741201 1.3689311363640506
-136.4394993045897 -9.034611627414066 1.3618947417631997
-135.93880389429762 -9.019473753488548 1.3548476500177937
-135.43810848400557 -9.00418024858299 1.3477901481674
-134.9374130737135 -8.9887314256449 1.3407225232515945
-134.4367176634214 -8.973127597621787 1.3336450623099303
-133.93602225312935 -8.957369077461195 1.3265580523819835
-133.43532684283727 -8.941456178110613 1.3194617805073214
-132.9346314325452 -8.925389212517569 1.312356533725504
-132.43393602225314 -8.90916849362958 1.3052425990761076
-131.93324061196105 -8.892794334394168 1.2981202635986921
-131.43254520166897 -8.876267047758837 1.290989814332825
-130.93184979137692 -8.859586946671126 1.2838515383180802
-130.43115438108484 -8.842754344078532 1.2767057225940164
-129.93045897079276 -8.82576955292858 1.269552654200206
-129.4297635605007 -8.808632886168791 1.2623926201762146
-128.92906815020862 -8.79134465674667 1.255225907561604
-128.42837273991654 -8.773905177609748 1.2480528033959501
-127.92767732962449 -8.756314761705532 1.2408735947188152
-127.4269819193324 -8.738573721981549 1.2336885685697645
-126.92628650904032 -8.720682371385298 1.226498011988367
-126.42559109874827 -8.702641022864327 1.2193022120141954
-125.92489568845619 -8.68444998936613 1.2121014556868062
-125.42420027816411 -8.666109583838217 1.2048960300457718
-124.92350486787205 -8.647620119228122 1.1976862221306597
-124.42280945757997 -8.628981908483368 1.1904723189810351
-123.92211404728789 -8.61019526455145 1.1832546076364672
-123.42141863699584 -8.5912605003799 1.1760333751365195
-122.92072322670376 -8.572177928916243 1.1688089085207647
-122.42002781641168 -8.552947863107967 1.1615814948287646
-121.91933240611961 -8.533570615902615 1.15435142110009
-121.41863699582754 -8.514046500247705 1.1471189743743064
-120.91794158553546 -8.494375829090732 1.139884441690974
-120.41724617524339 -8.474558915379234 1.1326481100896686
-119.91655076495132 -8.454596072060731 1.1254102666099612
-119.41585535465924 -8.434487612082716 1.118171198291403
-118.91515994436718 -8.414233848392733 1.1109311921735756
-118.41446453407511 -8.393835093938279 1.1036905352960407
-117.91376912378303 -8.37329166166688 1.0964495146983655
-117.41307371349096 -8.35260386452606 1.089208417420119
-116.91237830319889 -8.331772015463315 1.081967530500858
-116.41168289290681 -8.310796427426183 1.0747271409801655
-115.91098748261474 -8.289677413362174 1.0674875358975981
-115.41029207232268 -8.268415286218811 1.0602490022927267
-114.9095966620306 -8.247010358943594 1.053011827205113
-114.40890125173853 -8.225462944484061 1.0457762976743314
-113.90820584144646 -8.203773355787717 1.0385427007399421
-113.40751043115438 -8.181941905802077 1.031311323441514
-112.90681502086231 -8.15996890747467 1.0240824528186216
-112.40611961057024 -8.137854673753 1.0168563759108231
-111.90542420027816 -8.115599517584599 1.0096333797576893
-111.4047287899861 -8.093203751916974 1.0024137513987856
-110.90403337969401 -8.07066768969764 0.9951977778736792
-110.40333796940195 -8.047991643874116 0.9879857462219376
-109.90264255910988 -8.025175927393928 0.980777943483126
-109.4019471488178 -8.002220853204584 0.9735746566968134
-108.90125173852573 -7.9791267342536045 0.9663761729025689
-108.40055632823366 -7.955893883488507 0.9591827791399562
-107.89986091794158 -7.932522613856797 0.9519947624485406
-107.39916550764951 -7.90901323830602 0.9448124098678966
-106.89847009735745 -7.8853660697836645 0.9376360084375842
-106.39777468706536 -7.861581421237261 0.9304658451971654
-105.8970792767733 -7.837659605614331 0.923302207186225
-105.39638386648123 -7.813600935862379 0.9161453814443145
-104.89568845618915 -7.789405724928923 0.9089956550110062
-104.39499304589708 -7.7650742857614965 0.9018533149258693
-103.89429763560501 -7.740606931307603 0.8947186482284638
-103.39360222531293 -7.716003974514756 0.8875919419583659
-102.89290681502086 -7.691265728330478 0.8804734831551303
-102.3922114047288 -7.666392505702298 0.8733635588583385
-101.89151599443672 -7.641384619577714 0.8662624561075488
-101.39082058414465 -7.616242382904261 0.8591704619423303
-100.89012517385257 -7.590966108629438 0.8520878634022465
-100.3894297635605 -7.565556109700779 0.8450149475268683
-99.88873435326843 -7.540012699065791 0.8379520013557648
-99.38803894297635 -7.514336189671994 0.8308993119284994
-98.88734353268428 -7.488526894466901 0.8238571662846396
-98.38664812239222 -7.462585126398032 0.8168258514637506
-97.88595271210013 -7.436511198412916 0.8098056545053999
-97.38525730180807 -7.41030542345905 0.8027968624491616
-96.884561891516 -7.38396811448397 0.7957997623345959
-96.38386648122392 -7.357499584435168 0.7888146412012701
-95.88317107093185 -7.330900146260191 0.7818417860887513
-95.38247566063978 -7.30417011290654 0.7748814840366086
-94.8817802503477 -7.277309797321728 0.7679340220844056
-94.38108484005564 -7.250319512453281 0.760999687271715
-93.88038942976357 -7.223199571248728 0.7540787666380985
-93.37969401947149 -7.195950286655545 0.7471715472231198
-92.87899860917942 -7.16857197162129 0.7402783160663552
-92.37830319888734 -7.141064939093468 0.73339936020737
-91.87760778859527 -7.113429502019599 0.7265349666857278
-91.3769123783032 -7.08566597334719 0.719685422540996
-90.87621696801112 -7.057774666023768 0.7128510148127417
-90.37552155771905 -7.029755892996839 0.7060320305405304
-89.87482614742699 -7.001609967213938 0.6992287567639365
-89.3741307371349 -6.973337201622563 0.6924414805225164
-88.87343532684284 -6.944937909170243 0.6856704888558428
-88.37273991655077 -6.916412402804497 0.6789160688034847
-87.87204450625869 -6.8877609954728385 0.6721785074050038
-87.37134909596662 -6.85898400012276 0.6654580916999694
-86.87065368567455 -6.830081729701824 0.6587551087279556
-86.36995827538247 -6.80105449715753 0.6520698455285155
-85.8692628650904 -6.7719026154373765 0.6454025891412253
-85.36856745479834 -6.742626397488905 0.638753626605652
-84.86787204450626 -6.713226156259616 0.6321232449613595
-84.36717663421419 -6.683702204697035 0.6255117312479149
-83.86648122392211 -6.65405485574869 0.6189193725048908
-83.36578581363004 -6.624284422362074 0.6123464557718455
-82.86509040333797 -6.59439121748472 0.6057932680883517
-82.36439499304589 -6.564375554064142 0.5992600964939764
-81.86369958275382 -6.534237745047861 0.5927472280282834
-81.36300417246176 -6.503978103383375 0.5862549497308417
-80.86230876216968 -6.473596942018219 0.579783548641215
-80.36161335187761 -6.44309457389992 0.5733333117989793
-79.86091794158554 -6.4124713119759775 0.5669045262436948
-79.36022253129346 -6.381727469193912 0.5604974790149252
-78.85952712100139 -6.35086335850125 0.554112457152243
-78.35883171070932 -6.319879292845485 0.5477497476952154
-77.85813630041724 -6.2887755851741645 0.5414096376834062
-77.35744089012518 -6.257552548434795 0.5350924141563914
-76.85674547983311 -6.226210495574868 0.5287983641537205
-76.35605006954103 -6.1947497395419475 0.5225277747149767
-75.85535465924896 -6.16317059328351 0.5162809328797165
-75.35465924895689 -6.131473369747091 0.5100581256875126
-74.85396383866481 -6.099658381880211 0.5038596401779357
-74.35326842837274 -6.067725942630382 0.4976857633905477
-73.85257301808066 -6.035676364945118 0.4915367823649087
-73.3518776077886 -6.003509961771947 0.48541298414060197
-72.85118219749653 -5.971227046058367 0.4793146557571787
-72.35048678720445 -5.938827930751913 0.47324208425421144
-71.84979137691238 -5.906312928800091 0.46719555667127277
-71.34909596662031 -5.873682353150421 0.4611753600479246
-70.84840055632823 -5.840936516750439 0.4551817814237359
-70.34770514603616 -5.8080757325476355 0.4492151078382739
-69.8470097357441 -5.775100313489524 0.44327562633109874
-69.34631432545201 -5.742010572523647 0.43736362394178474
-68.84561891515995 -5.708806822597516 0.43147938770989913
-68.34492350486788 -5.675489376658639 0.4256232046750038
-67.8442280945758 -5.642058547654528 0.4197953618766713
-67.34353268428373 -5.608514648532719 0.41399614635446536
-66.84283727399166 -5.574857992240716 0.40822584514795135
-66.34214186369958 -5.541088891726041 0.40248474529670186
-65.84144645340751 -5.507207659936206 0.39677313384028057
-65.34075104311543 -5.473214609818719 0.3910912978182529
-64.84005563282336 -5.439110054321127 0.3854395242701879
-64.3393602225313 -5.404894306390922 0.379818100235651
-63.838664812239216 -5.3705676789756325 0.37422731275421117
-63.33796940194715 -5.336130485022771 0.36866744886543923
-62.83727399165508 -5.301583037479865 0.36313879560889173
-62.336578581363 -5.2669256492944 0.357641640024143
-61.83588317107093 -5.232158633413931 0.3521762691507585
-61.335187760778865 -5.197282302785965 0.346742970028309
-60.834492350486784 -5.162296970358007 0.34134202969635286
-60.333796940194716 -5.127202949077585 0.33597373519446794
-59.83310152990265 -5.092000551892205 0.33063837356220904
-59.33240611961057 -5.056690091749402 0.32533623183915406
-58.8317107093185 -5.021271881596675 0.3200675970648631
-58.33101529902643 -4.985746234381544 0.3148327562789034
-57.83031988873435 -4.950113463051551 0.3096319965208475
-57.329624478442284 -4.91437388055418 0.30446560483026086
-56.82892906815022 -4.878527799836959 0.2993338682467054
-56.328233657858135 -4.842575533847416 0.2942370738097536
-55.82753824756607 -4.806517395533064 0.28917550855896923
-55.326842837273986 -4.770353697841408 0.284149459533923
-54.82614742698192 -4.734084753719976 0.27915921377417685
-54.32545201668985 -4.6977108761162825 0.2742050583192962
-53.82475660639777 -4.661232377977839 0.26928728020885184
-53.3240611961057 -4.624649572252174 0.2644061664824199
-52.823365785813635 -4.587962771886801 0.25956200417955333
-52.322670375521554 -4.551172289829239 0.25475508033982297
-51.82197496522949 -4.514278439027002 0.24998568200279603
-51.321279554937405 -4.477281532427597 0.2452540962080415
-50.82058414464535 -4.440181882978557 0.24056060999512663
-50.31988873435327 -4.402979803627396 0.2359055104036204
-49.81919332406119 -4.365675607321627 0.2312890844730865
-49.318497913769136 -4.328269607008771 0.22671161924309036
-48.817802503477054 -4.2907621156363405 0.22217340175319744
-48.31710709318497 -4.253153446151849 0.21767471904297853
-47.81641168289292 -4.215443911502824 0.21321585815200794
-47.31571627260084 -4.177633824636793 0.2087971061198387
-46.81502086230876 -4.139723498501233 0.20441874998604337
-46.3143254520167 -4.101713246043708 0.20008107679018738
-45.81363004172462 -4.06360338021171 0.19578437357184686
-45.31293463143254 -4.025394213952758 0.19152892737058014
-44.81223922114049 -3.9870860602143665 0.18731502522595445
-44.311543810848406 -3.9486792319440767 0.18314295417753879
-43.810848400556324 -3.910174042089359 0.17901300126489683
-43.31015299026427 -3.871570803597784 0.1749254535276047
-42.80945757997219 -3.832869829416829 0.1708805980052136
-42.30876216968011 -3.794071432494029 0.1668787217373121
-41.808066759388026 -3.7551759257768964 0.16292011176344967
-41.30737134909597 -3.7161836222129523 0.15900505512319352
-40.80667593880389 -3.6770948347497026 0.15513383885612508
-40.30598052851181 -3.6379098763346818 0.15130675000179739
-39.80528511821976 -3.5986290599154103 0.14752407559978653
-39.304589707927676 -3.55925269843938 0.14378610268965264
-38.803894297635594 -3.5197811048541183 0.14009311831096294
-38.30319888734354 -3.48021459210716 0.13644540950328643
-37.80250347705146 -3.4405534731459895 0.13284326330619567
-37.30180806675938 -3.400798060918156 0.129286966759249
-36.801112656467325 -3.360948668371165 0.1257768069020243
-36.30041724617524 -3.3210056084525235 0.12231307077407283
-35.79972183588316 -3.2809691941097583 0.11889604541497067
-35.29902642559111 -3.240839738290397 0.11552601786428685
-34.79833101529903 -3.2006175539419246 0.11220327516158324
-34.297635605006946 -3.1603029540118968 0.10892810434643241
-33.79694019471489 -3.1198962514478126 0.1057007924583998
-33.29624478442281 -3.079397759197178 0.10252162653704378
-32.79554937413073 -3.038807790207528 0.09939089362194753
-32.294853963838676 -2.9981266574263827 0.09630888075266231
-31.794158553546595 -2.957354673801241 0.09327587496876422
-31.293463143254513 -2.9164921522796234 0.09029216330981515
-30.79276773296246 -2.8755394058090715 0.08735803281539478
-30.29207232267038 -2.83449674733707 0.08447377052505434
-29.791376912378297 -2.7933644898111396 0.08163966347836282
-29.290681502086244 -2.752142946178836 0.0788559987148928
-28.789986091794162 -2.7108324293876223 0.0761230632742097
-28.28929068150208 -2.669433252385062 0.0734411441958861
-27.788595271210028 -2.627945728118654 0.07081052851948033
-27.287899860917946 -2.586370169535897 0.06823150328455785
-26.787204450625865 -2.544706889584326 0.0657043555306912
-26.28650904033381 -2.502956201211475 0.06322937229745296
-25.78581363004173 -2.4611184173648297 0.06080684062440145
-25.28511821974965 -2.419193850991917 0.05843704755110213
-24.784422809457595 -2.3771828150402783 0.056120280117131105
-24.283727399165514 -2.3350856224573846 0.05385682536203962
-23.783031988873432 -2.292902586190799 0.05164697032541443
-23.28233657858135 -2.2506340191880057 0.04949100204681034
-22.781641168289298 -2.2082802343965326 0.04738920756579634
-22.280945757997216 -2.1658415447639072 0.045341873921945
-21.780250347705135 -2.1233182632376426 0.043349288154811094
-21.27955493741308 -2.080710702765252 0.041411737303974294
-20.778859527121 -2.038019176294249 0.03952950840899294
-20.27816411682892 -1.9952439967721602 0.0377028885094467
-19.777468706536865 -1.9523854771464784 0.03593216464488325
-19.276773296244784 -1.909443930364759 0.03421762385488225
-18.776077885952702 -1.86641966937448 0.03255955317900916
-18.27538247566065 -1.823313007123204 0.03095823965682587
-17.774687065368568 -1.780124256558416 0.029413970327912042
-17.273991655076486 -1.7368537306276366 0.02792703223182247
-16.773296244784433 -1.6935017422783716 0.026497712408122598
-16.27260083449235 -1.6500686044581698 0.02512629789638854
-15.77190542420027 -1.6065546301145304 0.023813075736189293
-15.271210013908217 -1.5629601321949664 0.022558332967083206
-14.770514603616135 -1.5192854236469984 0.021362356628632173
-14.269819193324054 -1.4755308174181607 0.02022543376042296
-13.769123783032 -1.4316966264559383 0.01914785140200681
-13.268428372739919 -1.3877831637078657 0.01812989659294917
-12.767732962447838 -1.3437907421214703 0.01717185637283325
-12.267037552155784 -1.2997196746442512 0.01627401778120674
-11.766342141863703 -1.2555702742237287 0.015436667857645747
-11.265646731571621 -1.2113428538074444 0.014660093641722827
-10.764951321279568 -1.1670377263428762 0.013944582172989217
-10.264255910987487 -1.1226552047775655 0.013290420491028132
-9.763560500695405 -1.078204172461752 0.01269100139082058
-9.262865090403352 -1.0345961057023656 0.01207646731571629
-8.76216968011127 -0.9916990264255915 0.011516439499304594
-8.261474269819189 -0.9484436717663417 0.010993310152990259
-7.760778859527136 -0.8945098748261494 0.010412503477051476
-7.260083449235054 -0.8284431154381092 0.009855688456189157
