Polar data for NACA 0012 at Re = 902068.9655172415
Alpha (deg) Cl Cd
-180.0 -6.639222631271403 1.5379614405765665
-179.49930458970792 -6.647306509408862 1.5339798641334763
-178.99860917941587 -6.655268358502228 1.5299702593512245
-178.49791376912378 -6.663107978294262 1.5259328489676856
-177.9972183588317 -6.670825168527729 1.521867855720731
-177.49652294853965 -6.6784197289453875 1.5177755023482318
-176.99582753824757 -6.685891459290001 1.5136560115880595
-176.4951321279555 -6.693240159304329 1.5095096061780895
-175.99443671766343 -6.700465628731131 1.5053365088561899
-175.49374130737135 -6.707567667313169 1.5011369423602359
-174.99304589707927 -6.71454607479321 1.4969111294281001
-174.49235048678722 -6.721400650914008 1.4926592927976525
-173.99165507649514 -6.728131195418328 1.4883816552067657
-173.49095966620305 -6.734737508048928 1.4840784393933104
-172.990264255911 -6.74121938854857 1.479749868095161
-172.48956884561892 -6.747576636660019 1.4753961640501903
-171.98887343532684 -6.753809052126035 1.4710175499962697
-171.48817802503476 -6.7599164346893765 1.4666142486712674
-170.9874826147427 -6.765898584092804 1.4621864828130624
-170.48678720445062 -6.771755300079082 1.457734475159521
-169.98609179415854 -6.77748638239097 1.45325844844852
-169.4853963838665 -6.7830916307712315 1.448758625417927
-168.9847009735744 -6.788570844962626 1.444235228805617
-168.48400556328232 -6.793923824707912 1.4396884813494637
-167.98331015299027 -6.799150369749855 1.435118605787335
-167.4826147426982 -6.804250279831214 1.4305258248571056
-166.9819193324061 -6.809223354694751 1.4259103612966477
-166.48122392211405 -6.814069394083225 1.4212724378438324
-165.98052851182197 -6.818788197739401 1.4166122772365313
-165.4798331015299 -6.823379565406039 1.4119301022126196
-164.97913769123784 -6.827843296825899 1.4072261355099656
-164.47844228094576 -6.832179191741744 1.4025005998664444
-163.97774687065368 -6.836387049896333 1.397753718019926
-163.47705146036162 -6.840466671032425 1.392985712708283
-162.97635605006954 -6.844417854892788 1.3881968066693897
-162.47566063977746 -6.848240401220179 1.383387222641117
-161.9749652294854 -6.851934109757362 1.3785571833613357
-161.47426981919332 -6.855498780247091 1.3737069115679157
-160.97357440890124 -6.8589342124321355 1.3688366299987376
-160.4728789986092 -6.8622402060552545 1.3639465613916668
-159.9721835883171 -6.865416560859208 1.359036928484576
-159.47148817802503 -6.868463076586755 1.3541079540153378
-158.97079276773297 -6.87137955298066 1.3491598607218265
-158.4700973574409 -6.874165789783683 1.344192871341912
-157.9694019471488 -6.876821586738588 1.339207208613466
-157.46870653685676 -6.8793467435881315 1.3342030952743613
-156.96801112656468 -6.881741060075077 1.3291807540624712
-156.4673157162726 -6.884004335942185 1.3241404077156655
-155.96662030598054 -6.886136370932219 1.3190822789718215
-155.46592489568846 -6.88813696478794 1.3140065905688054
-154.96522948539638 -6.890005917252106 1.3089135652444908
-154.46453407510432 -6.891743028067479 1.303803425736751
-153.96383866481224 -6.893348096976824 1.2986763947834579
-153.46314325452016 -6.894820923722897 1.293532695122483
-152.9624478442281 -6.896161308048461 1.2883725494917
-152.46175243393603 -6.89736904969628 1.2831961806289796
-151.96105702364395 -6.898443948409112 1.2780038112721934
-151.4603616133519 -6.899385803929718 1.272795664159215
-150.9596662030598 -6.900194416000863 1.2675719620279189
-150.45897079276773 -6.900869584365305 1.2623329276161712
-149.95827538247568 -6.901411108765805 1.2570787836618473
-149.4575799721836 -6.901818788945127 1.2518097529028207
-148.9568845618915 -6.902092424646028 1.2465260580769604
-148.45618915159943 -6.902231815611273 1.2412279219221416
-147.95549374130738 -6.902236761583621 1.2359155671762334
-147.4547983310153 -6.902107062305836 1.2305892165771102
-146.95410292072324 -6.901842517520679 1.2252490928626436
-146.45340751043116 -6.901442926970905 1.2198954187707063
-145.95271210013908 -6.900908090399282 1.214528417039169
-145.452016689847 -6.900237807548564 1.2091483104059062
-144.95132127955495 -6.899431878161524 1.2037553216087877
-144.45062586926286 -6.898490101980913 1.1983496733856835
-143.94993045897078 -6.897412278749494 1.1929315884744707
-143.44923504867873 -6.896198208210032 1.1875012896130208
-142.94853963838665 -6.894847690105285 1.1820589995392048
-142.44784422809457 -6.893360524178016 1.1766049409908925
-141.9471488178025 -6.891736510170983 1.1711393367059593
-141.44645340751043 -6.88997544782695 1.1656624094222758
-140.94575799721835 -6.888077136888679 1.160174381877714
-140.44506258692627 -6.886041377098932 1.1546754768101453
-139.94436717663422 -6.883867968200464 1.149165916957445
-139.44367176634213 -6.881556709936044 1.1436459250574842
-138.94297635605005 -6.879107402048426 1.1381157238481334
-138.442280945758 -6.876519844280377 1.1325755360672636
-137.94158553546592 -6.873793836374656 1.1270255844527508
-137.44089012517384 -6.870929178074023 1.1214660917424641
-136.94019471488178 -6.867925669121243 1.115897280674277
-136.4394993045897 -6.864783109259076 1.1103193739860622
-135.93880389429762 -6.861501298230278 1.1047325944156903
-135.43810848400557 -6.858080035777615 1.099137164701034
-134.9374130737135 -6.854519121643847 1.093533307579965
-134.4367176634214 -6.850818355571736 1.0879212457903549
-133.93602225312935 -6.846977537304042 1.0823012020700808
-133.43532684283727 -6.842996466583529 1.0766733991570083
-132.9346314325452 -6.838874943152954 1.0710380597890143
-132.43393602225314 -6.834612766755079 1.0653954067039653
-131.93324061196105 -6.8302097371326695 1.0597456626397381
-131.43254520166897 -6.825665654028482 1.0540890503342037
-130.93184979137692 -6.820980317185281 1.0484257925252356
-130.43115438108484 -6.8161535263458255 1.0427561119507036
-129.93045897079276 -6.811185081252878 1.0370802313484822
-129.4297635605007 -6.806074781649201 1.031398373456442
-128.92906815020862 -6.80082242727755 1.0257107610124532
-128.42837273991654 -6.7954278178806895 1.0200176167543926
-127.92767732962449 -6.7898907532013855 1.0143191634201276
-127.4269819193324 -6.784211032982393 1.0086156237475334
-126.92628650904032 -6.778388456966475 1.00290722047448
-126.42559109874827 -6.772422824896392 0.9971941763388478
-125.92489568845619 -6.766313936514907 0.9914767140784927
-125.42420027816411 -6.7600615915647815 0.9857550564312997
-124.92350486787205 -6.753665589788772 0.9800294261351378
-124.42280945757997 -6.747125730929646 0.9743000459278778
-123.92211404728789 -6.740441814730163 0.9685671385473958
-123.42141863699584 -6.733613640933079 0.9628309267315557
-122.92072322670376 -6.726641009281163 0.9570916332182388
-122.42002781641168 -6.719523719517172 0.9513494807453106
-121.91933240611961 -6.71226157138387 0.9456046920506472
-121.41863699582754 -6.70485436462401 0.9398574898721196
-120.91794158553546 -6.697301898980363 0.9341080969475967
-120.41724617524339 -6.689603974195689 0.9283567360149582
-119.91655076495132 -6.681760390012743 0.9226036298120696
-119.41585535465924 -6.673770946174292 0.9168490010768052
-118.91515994436718 -6.665635442423092 0.9110930725470378
-118.41446453407511 -6.657353678501909 0.905336066960638
-117.91376912378303 -6.648925454153503 0.8995782070554784
-117.41307371349096 -6.640350569120633 0.8938197155694317
-116.91237830319889 -6.631628823146064 0.8880608152403705
-116.41168289290681 -6.622760015972554 0.8823017288061655
-115.91098748261474 -6.613743947342867 0.8765426790046912
-115.41029207232268 -6.6045804169997595 0.8707838885738165
-114.9095966620306 -6.595269224685998 0.8650255802514158
-114.40890125173853 -6.58581017014434 0.8592679767753618
-113.90820584144646 -6.576203053117549 0.8535113008835234
-113.40751043115438 -6.566447673348385 0.8477557753137751
-112.90681502086231 -6.5565438305796135 0.8420016228039912
-112.40611961057024 -6.546491324553989 0.8362490660920389
-111.90542420027816 -6.536289955014274 0.8304983279157944
-111.4047287899861 -6.525939521703233 0.8247496310131303
-110.90403337969401 -6.515439824363622 0.819003198121912
-110.40333796940195 -6.504790662738211 0.8132592519800176
-109.90264255910988 -6.493991836569753 0.8075180153253195
-109.4019471488178 -6.483043145601014 0.8017797108956869
-108.90125173852573 -6.47194438957475 0.7960445614289923
-108.40055632823366 -6.460695368233727 0.7903127896631136
-107.89986091794158 -6.449295881320706 0.784584618335911
-107.39916550764951 -6.437745728578443 0.7788602701852713
-106.89847009735745 -6.426044709749707 0.7731399679490546
-106.39777468706536 -6.414192624577256 0.7674239343651389
-105.8970792767733 -6.402189272803847 0.7617123921713967
-105.39638386648123 -6.39003445417225 0.7560055641056972
-104.89568845618915 -6.377727968425216 0.750303672905911
-104.39499304589708 -6.365269615305513 0.7446069413099198
-103.89429763560501 -6.352659194555903 0.7389155920555853
-103.39360222531293 -6.339896505919139 0.7332298478807838
-102.89290681502086 -6.326981349137993 0.7275499315233861
-102.3922114047288 -6.313913523955218 0.7218760657212647
-101.89151599443672 -6.300692830113578 0.7162084732122923
-101.39082058414465 -6.28731906735584 0.710547376734345
-100.89012517385257 -6.273792035424753 0.7048929990252865
-100.3894297635605 -6.260111534063089 0.6992455628229929
-99.88873435326843 -6.246277363013602 0.6936052908653404
-99.38803894297635 -6.23228932201906 0.687972405890198
-98.88734353268428 -6.218147210822218 0.6823471306354331
-98.38664812239222 -6.203850829165839 0.676729687838927
-97.88595271210013 -6.1893999767926875 0.6711203002385434
-97.38525730180807 -6.1747944534455215 0.6655191905721621
-96.884561891516 -6.160034058867101 0.6599265815776486
-96.38386648122392 -6.145118592800191 0.6543426959928754
-95.88317107093185 -6.13004785498755 0.6487677565557205
-95.38247566063978 -6.1148216451719435 0.6432019860040529
-94.8817802503477 -6.0994397630961235 0.6376456070757416
-94.38108484005564 -6.083902008502859 0.632098842508661
-93.88038942976357 -6.068208181134912 0.6265619150406855
-93.37969401947149 -6.052358080735035 0.6210350474096841
-92.87899860917942 -6.036351507046001 0.6155184623535294
-92.37830319888734 -6.020188259810563 0.6100123826100975
-91.87760778859527 -6.003868138771482 0.6045170309172557
-91.3769123783032 -5.987390943671526 0.5990326300128784
-90.87621696801112 -5.9707564742534505 0.5935594026348364
-90.37552155771905 -5.95396453026002 0.5880975715210023
-89.87482614742699 -5.937014911433989 0.5826473594092504
-89.3741307371349 -5.919907417518127 0.577208989037448
-88.87343532684284 -5.9026418482551914 0.571782683143473
-88.37273991655077 -5.885218003387942 0.5663686644651945
-87.87204450625869 -5.867635682659143 0.5609671557404851
-87.37134909596662 -5.849894685811558 0.5555783797072101
-86.87065368567455 -5.831994812587942 0.5502025591032583
-86.36995827538247 -5.813935862731059 0.5448399166664862
-85.8692628650904 -5.7957176359836655 0.53949067513477
-85.36856745479834 -5.777339932088536 0.5341550572459911
-84.86787204450626 -5.758802550788415 0.5288332857380061
-84.36717663421419 -5.740105291826072 0.5235255833487001
-83.86648122392211 -5.721247954944275 0.5182321728159386
-83.36578581363004 -5.702230339885775 0.5129532768775958
-82.86509040333797 -5.683052246393334 0.5076891182715392
-82.36439499304589 -5.663713474209716 0.50243991973565
-81.86369958275382 -5.644213823077683 0.49720590400779574
-81.36300417246176 -5.624553092739994 0.4919872938258435
-80.86230876216968 -5.604731082939411 0.48678431192767124
-80.36161335187761 -5.584747593418699 0.48159718105115334
-79.86091794158554 -5.5646024239206096 0.47642612393415706
-79.36022253129346 -5.544295374187914 0.4712713633145532
-78.85952712100139 -5.523826243963372 0.4661331219302197
-78.35883171070932 -5.503194832989735 0.46101162251902206
-77.85813630041724 -5.482400941009773 0.4559070878188417
-77.35744089012518 -5.461444367766253 0.45081974056754237
-76.85674547983311 -5.44032491300192 0.4457498035029984
-76.35605006954103 -5.419042376459551 0.44069749936308245
-75.85535465924896 -5.397596557881897 0.4356630508856688
-75.35465924895689 -5.375987257011724 0.43064668080862656
-74.85396383866481 -5.354214273591788 0.4256486118698283
-74.35326842837274 -5.332277407364856 0.42066906680714833
-73.85257301808066 -5.310176458073689 0.415708268358454
-73.3518776077886 -5.287911225461043 0.4107664392616267
-72.85118219749653 -5.265481509269685 0.4058438022545249
-72.35048678720445 -5.242887109242373 0.40094058007503
-71.84979137691238 -5.2201278251218675 0.39605699546101636
-71.34909596662031 -5.1972034566509375 0.3911932711503495
-70.84840055632823 -5.174113803572331 0.3863496298809056
-70.34770514603616 -5.150858665628819 0.38152629439055896
-69.8470097357441 -5.127437842563161 0.37672348741717154
-69.34631432545201 -5.103851134118111 0.37194143169862126
-68.84561891515995 -5.080098340036445 0.3671803499727878
-68.34492350486788 -5.05617926006091 0.3624404649775331
-67.8442280945758 -5.03209369393427 0.35772199945073335
-67.34353268428373 -5.007841441399297 0.3530251761302611
-66.84283727399166 -4.983422302198742 0.34835021775398356
-66.34214186369958 -4.958836076075363 0.3436973470597823
-65.84144645340751 -4.9340825627719305 0.33906678678552093
-65.34075104311543 -4.9091615620311995 0.3344587596690739
-64.84005563282336 -4.884072873595935 0.32987348844831554
-64.3393602225313 -4.858816297208898 0.3253111958611167
-63.838664812239216 -4.833391632612846 0.3207721046453481
-63.33796940194715 -4.807798679550544 0.31625643753888777
-62.83727399165508 -4.782037237764751 0.31176441727959936
-62.336578581363 -4.756107106998233 0.30729626660535725
-61.83588317107093 -4.73000808699374 0.30285220825403936
-61.335187760778865 -4.703739977494047 0.29843246496351117
-60.834492350486784 -4.677302578241905 0.2940372594716506
-60.333796940194716 -4.650695688980077 0.2896668145163249
-59.83310152990265 -4.6239191094513306 0.2853213528354085
-59.33240611961057 -4.596972639398421 0.28100109716677213
-58.8317107093185 -4.56985607856411 0.27670627024828487
-58.33101529902643 -4.542569226691162 0.27243709481782286
-57.83031988873435 -4.515111883522332 0.26819379361326756
-57.329624478442284 -4.487483848800389 0.26397658937247204
-56.82892906815022 -4.459684922268087 0.2597857048333213
-56.328233657858135 -4.431714903668192 0.2556213627336862
-55.82753824756607 -4.403573592743465 0.25148378581143216
-55.326842837273986 -4.375260789236664 0.24737319680444425
-54.82614742698192 -4.346776292890558 0.24328981845058084
-54.32545201668985 -4.318119903447892 0.2392338734877163
-53.82475660639777 -4.2892914206514465 0.2352055846537321
-53.3240611961057 -4.260290644243971 0.23120517468649016
-52.823365785813635 -4.231117373968226 0.2272328663238702
-52.322670375521554 -4.201771409566982 0.22328888230373944
-51.82197496522949 -4.172252550782995 0.2193734453639723
-51.321279554937405 -4.1425605973590205 0.21548677824243956
-50.82058414464535 -4.112695349037827 0.21162910367701382
-50.31988873435327 -4.082656605562173 0.20780064440556767
-49.81919332406119 -4.052444166674823 0.20400162316597548
-49.318497913769136 -4.0220578321185325 0.2002322626961045
-48.817802503477054 -3.991497401636065 0.19649278573382734
-48.31710709318497 -3.960762674970185 0.19278341501701834
-47.81641168289292 -3.929853451863648 0.18910437328355012
-47.31571627260084 -3.8987695320592244 0.1854558832712988
-46.81502086230876 -3.8675107152996637 0.1818381677181281
-46.3143254520167 -3.836076801327733 0.17825144936190884
-45.81363004172462 -3.8044675898862024 0.1746959509405296
-45.31293463143254 -3.7726828807178108 0.1711718951918434
-44.81223922114049 -3.740722473565343 0.16767950485372995
-44.311543810848406 -3.7085861681715477 0.16421900266406364
-43.810848400556324 -3.6762737642791783 0.1607906113607135
-43.31015299026427 -3.6437850616310192 0.15739455368155209
-42.80945757997219 -3.6111198599698127 0.1540310523644538
-42.30876216968011 -3.578277959038322 0.1507003301472859
-41.808066759388026 -3.5452591585793143 0.1474026097679263
-41.30737134909597 -3.512063258335553 0.14413811396424225
-40.80667593880389 -3.478690058049794 0.1409070654741117
-40.30598052851181 -3.445139357464791 0.13770968703540187
-39.80528511821976 -3.411410956323324 0.13454620138598716
-39.304589707927676 -3.3775046543681397 0.13141683126373482
-38.803894297635594 -3.3434202513420046 0.12832179940652455
-38.30319888734354 -3.3091575469876786 0.12526132855222538
-37.80250347705146 -3.2747163410479216 0.12223564143870813
-37.30180806675938 -3.24009643326549 0.11924496080384539
-36.801112656467325 -3.205297623383165 0.11628950938550975
-36.30041724617524 -3.1703197111436814 0.11336950992157557
-35.79972183588316 -3.135162496289817 0.11048518514990835
-35.29902642559111 -3.099825778564339 0.10763675780838777
-34.79833101529903 -3.0643093577099854 0.10482445063488288
-34.297635605006946 -3.0286130334695343 0.10204848636726271
-33.79694019471489 -2.9927366055857525 0.09930908774340519
-33.29624478442281 -2.9566798738013786 0.09660647750117934
-32.79554937413073 -2.9204426378591903 0.09394087837845777
-32.294853963838676 -2.884024697501951 0.09131251311311306
-31.794158553546595 -2.8474258524724134 0.08872160444301602
-31.293463143254513 -2.8106459025133375 0.08616837510604103
-30.79276773296246 -2.7736846473675043 0.08365304784005356
-30.29207232267038 -2.7365418867776454 0.08117584538293865
-29.791376912378297 -2.6992174204865385 0.07873699047255467
-29.290681502086244 -2.6617110482369504 0.07633670584678487
-28.789986091794162 -2.6240225697716233 0.07397521424348763
-28.28929068150208 -2.5861517848333313 0.0716527384005533
-27.788595271210028 -2.5480984931648414 0.06936950105584205
-27.287899860917946 -2.509862494508899 0.06712572494722469
-26.787204450625865 -2.471443588608279 0.0649216328125809
-26.28650904033381 -2.43284157520574 0.06275744738977973
-25.78581363004173 -2.394056254044036 0.06063339141669022
-25.28511821974965 -2.3550874248659297 0.058549687631190284
-24.784422809457595 -2.3159348874141954 0.056506558771147186
-24.283727399165514 -2.2765984414315716 0.05450422757442819
-23.783031988873432 -2.237077886660836 0.05254291677892364
-23.28233657858135 -2.1973730228447557 0.050622849122484825
-22.781641168289298 -2.157483649726069 0.04874424734299676
-22.280945757997216 -2.1174095670475572 0.04690733417832671
-21.780250347705135 -2.077150574551973 0.04511233236634904
-21.27955493741308 -2.0367064719820838 0.043359464644934564
-20.778859527121 -1.9960770590806383 0.0416489537519541
-20.27816411682892 -1.9552621355904143 0.039981022425283785
-19.777468706536865 -1.914261501254154 0.03835589340278911
-19.276773296244784 -1.873074955814635 0.03677378942235332
-18.776077885952702 -1.8317022990146135 0.0352349332218348
-18.27538247566065 -1.7901433305968495 0.03373954753911501
-17.774687065368568 -1.7483978503041029 0.032287855112063
-17.273991655076486 -1.7064656578791335 0.030880078678553136
-16.773296244784433 -1.664346553064712 0.029516440976456226
-16.27260083449235 -1.6220403356035837 0.028197164743639536
-15.77190542420027 -1.5795468052385302 0.026922472717984536
-15.271210013908217 -1.536865761712297 0.025692587637360265
-14.770514603616135 -1.4939970047676474 0.02450773223963043
-14.269819193324054 -1.4509403341473486 0.023368129262681836
-13.769123783032 -1.4076955495941568 0.022274001444371083
-13.268428372739919 -1.3642624508508319 0.021225571522583198
-12.767732962447838 -1.3206408376601408 0.02022306223518544
-12.267037552155784 -1.2768305097648436 0.01926669632004685
-11.766342141863703 -1.2328312669077 0.018356696515040016
-11.265646731571621 -1.1886429088314698 0.01749328555804286
-10.764951321279568 -1.1442652352789167 0.016676686186926193
-10.264255910987487 -1.0996980459927967 0.015907121139553726
-9.763560500695405 -1.0549623087621693 0.015179527121001384
-9.262865090403352 -1.0120972183588328 0.014349443671766368
-8.76216968011127 -0.9707222531293467 0.01348849791376913
-8.261474269819189 -0.9283299026425588 0.012813310152990259
