Polar data for NACA 0012 at Re = 696206.8965517242
Alpha (deg) Cl Cd
-180.0 -7.765728427011833 1.8225029174317242
-179.49930458970792 -7.768839220204905 1.817887672078396
-178.99860917941587 -7.771806734741592 1.8132392036299627
-178.49791376912378 -7.774631044048126 1.808557770502057
-177.9972183588317 -7.777312221550741 1.8038436311103137
-177.49652294853965 -7.779850340675662 1.7990970438703673
-176.99582753824757 -7.782245474849111 1.7943182671978508
-176.4951321279555 -7.784497697497331 1.7895075595084033
-175.99443671766343 -7.786607082046542 1.784665179217655
-175.49374130737135 -7.788573701922976 1.7797913847412434
-174.99304589707927 -7.790397630552867 1.7748864344948039
-174.49235048678722 -7.792078941362432 1.7699505868939667
-173.99165507649514 -7.793617707777912 1.764984100354371
-173.49095966620305 -7.795014003225528 1.7599872332916486
-172.990264255911 -7.796267901131513 1.7549602441214327
-172.48956884561892 -7.797379474922101 1.7499033912593613
-171.98887343532684 -7.798348798023511 1.7448169331210692
-171.48817802503476 -7.799175943861979 1.7397011281221892
-170.9874826147427 -7.799860985863731 1.734556234678357
-170.48678720445062 -7.800403997454998 1.7293825112052044
-169.98609179415854 -7.800805052062012 1.7241802161183706
-169.4853963838665 -7.801064223110991 1.7189496078334858
-168.9847009735744 -7.801181584028178 1.7136909447661892
-168.48400556328232 -7.801157208239793 1.708404485332111
-167.98331015299027 -7.8009911691720735 1.7030904879468884
-167.4826147426982 -7.800683540251242 1.6977492110261545
-166.9819193324061 -7.800234394903526 1.6923809129855474
-166.48122392211405 -7.799643806555162 1.6869858522406964
-165.98052851182197 -7.798911848632375 1.6815642872072398
-165.4798331015299 -7.798038594561389 1.6761164763008123
-164.97913769123784 -7.797024117768441 1.670642677937045
-164.47844228094576 -7.795868491679757 1.6651431505315768
-163.97774687065368 -7.794571789721569 1.6596181525000417
-163.47705146036162 -7.793134085320103 1.6540679422580709
-162.97635605006954 -7.791555451901587 1.6484927782213006
-162.47566063977746 -7.789835962892257 1.6428929188053683
-161.9749652294854 -7.787975691718332 1.6372686224259059
-161.47426981919332 -7.785974711806048 1.6316201474985454
-160.97357440890124 -7.7838330965816365 1.6259477524389279
-160.4728789986092 -7.78155091947132 1.6202516956626833
-159.9721835883171 -7.7791282539013284 1.6145322355854492
-159.47148817802503 -7.776565173297897 1.6087896306228593
-158.97079276773297 -7.773861751087249 1.6030241391905473
-158.4700973574409 -7.771018060695617 1.5972360197041462
-157.9694019471488 -7.768034175549229 1.5914255305792906
-157.46870653685676 -7.7649101690743105 1.5855929302316196
-156.96801112656468 -7.761646114697099 1.5797384770767644
-156.4673157162726 -7.758242085843815 1.5738624295303605
-155.96662030598054 -7.754698155940696 1.5679650460080443
-155.46592489568846 -7.751014398413961 1.5620465849254461
-154.96522948539638 -7.747190886689847 1.5561073046982041
-154.46453407510432 -7.743227694194582 1.550147463741953
-153.96383866481224 -7.7391248943543935 1.5441673204723247
-153.46314325452016 -7.734882560595512 1.5381671333049567
-152.9624478442281 -7.7305007663441625 1.53214716065548
-152.46175243393603 -7.725979585026582 1.5261076609395328
-151.96105702364395 -7.721319090068995 1.5200488925727471
-151.4603616133519 -7.716519354897628 1.5139711139707603
-150.9596662030598 -7.711580452938717 1.5078745835492062
-150.45897079276773 -7.706502457618484 1.5017595597237177
-149.95827538247568 -7.701285442363163 1.4956263009099338
-149.4575799721836 -7.695929480598982 1.4894750655234812
-148.9568845618915 -7.690434645752166 1.48330611198
-148.45618915159943 -7.684801011248956 1.4771196986951256
-147.95549374130738 -7.679028650515567 1.4709160840844884
-147.4547983310153 -7.673117636978237 1.4646955265637291
-146.95410292072324 -7.667068044063193 1.4584582845484764
-146.45340751043116 -7.66087994519666 1.4522046164543674
-145.95271210013908 -7.654553413804871 1.4459347806970342
-145.452016689847 -7.648088523314062 1.4396490356921212
-144.95132127955495 -7.641485347150448 1.4333476398552498
-144.45062586926286 -7.634743958740268 1.4270308516020627
-143.94993045897078 -7.627864431509746 1.4206989293481918
-143.44923504867873 -7.620846838885116 1.4143521315092709
-142.94853963838665 -7.613691254292609 1.4079907165009373
-142.44784422809457 -7.606397751158443 1.401614942738825
-141.9471488178025 -7.598966402908859 1.3952250686385674
-141.44645340751043 -7.591397282970076 1.3888213526157969
-140.94575799721835 -7.583690464768335 1.3824040530861523
-140.44506258692627 -7.575846021729857 1.3759734284652712
-139.94436717663422 -7.5678640272808675 1.36952973716878
-139.44367176634213 -7.559744554847612 1.363073237612318
-138.94297635605005 -7.551487677856299 1.3566041882115207
-138.442280945758 -7.54309346973317 1.3501228473820148
-137.94158553546592 -7.534562003904453 1.3436294735394483
-137.44089012517384 -7.525893353796375 1.3371243250994442
-136.94019471488178 -7.5170875928351695 1.3306076604776436
-136.4394993045897 -7.508144794447059 1.3240797380896783
-135.93880389429762 -7.499065032058272 1.3175408163511857
-135.43810848400557 -7.489848379095045 1.3109911536777943
-134.9374130737135 -7.480494908983607 1.3044310084851467
-134.4367176634214 -7.471004695150176 1.2978606391888696
-133.93602225312935 -7.461377811021 1.291280304204604
-133.43532684283727 -7.451614330022286 1.2846902619479834
-132.9346314325452 -7.44171432558028 1.27809077083464
-132.43393602225314 -7.431677871121201 1.2714820892802077
-131.93324061196105 -7.42150504007129 1.2648644757003253
-131.43254520166897 -7.411195905856767 1.258238188510625
-130.93184979137692 -7.4007505419038555 1.2516034861267424
-130.43115438108484 -7.390169021638799 1.2449606269643112
-129.93045897079276 -7.379451418487816 1.2383098694389651
-129.4297635605007 -7.368597805877146 1.2316514719663398
-128.92906815020862 -7.357608257233009 1.2249856929620673
-128.42837273991654 -7.346482845981631 1.2183127908417901
-127.92767732962449 -7.335221645549256 1.2116330240211333
-127.4269819193324 -7.3238247293621 1.2049466509157376
-126.92628650904032 -7.312292170846392 1.1982539299412351
-126.42559109874827 -7.300624043428373 1.191555119513265
-125.92489568845619 -7.288820420534259 1.1848504780474538
-125.42420027816411 -7.276881375590291 1.1781402639594425
-124.92350486787205 -7.2648069820226855 1.1714247356648595
-124.42280945757997 -7.252597313257679 1.1647041515793457
-123.92211404728789 -7.240252442721504 1.157978770118535
-123.42141863699584 -7.227772443840381 1.1512488496980573
-122.92072322670376 -7.215157390040551 1.1445146487335538
-122.42002781641168 -7.20240735474823 1.1377764256406528
-121.91933240611961 -7.189522411389651 1.1310344388349953
-121.41863699582754 -7.176502633391051 1.1242889467322115
-120.91794158553546 -7.163348094178646 1.1175402077479368
-120.41724617524339 -7.15005886717868 1.1107884802978016
-119.91655076495132 -7.136635025817375 1.1040340227974503
-119.41585535465924 -7.123076643520951 1.0972770936625114
-118.91515994436718 -7.109383793715656 1.0905179513086185
-118.41446453407511 -7.095556549827707 1.083756854151409
-117.91376912378303 -7.0815949852833295 1.076994060606517
-117.41307371349096 -7.067499173508766 1.0702298290895775
-116.91237830319889 -7.053269187930232 1.0634644180162212
-116.41168289290681 -7.038905101973969 1.056698085802087
-115.91098748261474 -7.024406989066199 1.0499310908628103
-115.41029207232268 -7.009774922633147 1.0431636916140234
-114.9095966620306 -6.995008976101053 1.0363961464713582
-114.40890125173853 -6.980109222896134 1.0296287138504538
-113.90820584144646 -6.965075736444634 1.0228616521669458
-113.40751043115438 -6.94990859017277 1.0160952198364626
-112.90681502086231 -6.934607857506775 1.0093296752746468
-112.40611961057024 -6.91917361187288 1.002565276897127
-111.90542420027816 -6.903605926697308 0.9958022831195386
-111.4047287899861 -6.8879048754062975 0.989040952357519
-110.90403337969401 -6.87207053142607 0.982281543026702
-110.40333796940195 -6.856102968182862 0.9755243135427161
-109.90264255910988 -6.84000225910289 0.9687695223212038
-109.4019471488178 -6.823768477612399 0.9620174277778009
-108.90125173852573 -6.807401697137609 0.9552682883281338
-108.40055632823366 -6.790901991104752 0.9485223623878454
-107.89986091794158 -6.774269432940047 0.9417799083725622
-107.39916550764951 -6.757504096069743 0.935041184697927
-106.89847009735745 -6.740606053920052 0.9283064497795663
-106.39777468706536 -6.723575379917209 0.9215759620331176
-105.8970792767733 -6.7064121474874465 0.9148499798742218
-105.39638386648123 -6.689116430056989 0.908128761718509
-104.89568845618915 -6.6716883010520664 0.9014125659816112
-104.39499304589708 -6.654127833898913 0.8947016510791659
-103.89429763560501 -6.636435102023752 0.8879962754268085
-103.39360222531293 -6.618610178852814 0.881296697440171
-102.89290681502086 -6.600653137812321 0.8746031755348855
-102.3922114047288 -6.58256405232852 0.8679159681265929
-101.89151599443672 -6.564342995827628 0.8612353336309233
-101.39082058414465 -6.545990041735875 0.8545615304635195
-100.89012517385257 -6.527505263479489 0.8478948170400045
-100.3894297635605 -6.508888734484701 0.8412354517760192
-99.88873435326843 -6.490140528177749 0.8345836930871975
-99.38803894297635 -6.471260717984846 0.8279397993891731
-98.88734353268428 -6.452249377332228 0.8213040290975797
-98.38664812239222 -6.433106579646131 0.8146766406280601
-97.88595271210013 -6.413832398352776 0.8080578923962374
-97.38525730180807 -6.394426906878392 0.8014480428177524
-96.884561891516 -6.374890178649215 0.7948473503082407
-96.38386648122392 -6.355222287091463 0.788256073283329
-95.88317107093185 -6.3354233056313785 0.7816744701586618
-95.38247566063978 -6.315493307695183 0.7751027993498674
-94.8817802503477 -6.295432366709099 0.768541319272585
-94.38108484005564 -6.275240556099371 0.7619902883424465
-93.88038942976357 -6.254917949292219 0.7554499649750841
-93.37969401947149 -6.2344646197138704 0.7489206075861385
-92.87899860917942 -6.213880640790565 0.7424024745912383
-92.37830319888734 -6.193166085948517 0.735895824406019
-91.87760778859527 -6.17232102861397 0.7294009154461232
-91.3769123783032 -6.151345542213145 0.7229180061271758
-90.87621696801112 -6.13023970017227 0.716447354864816
-90.37552155771905 -6.109003575917582 0.7099892200746758
-89.87482614742699 -6.087637242875298 0.7035438601723925
-89.3741307371349 -6.066140774471654 0.697111533573598
-88.87343532684284 -6.044514244132886 0.6906924986939298
-88.37273991655077 -6.022757725285212 0.6842870139490216
-87.87204450625869 -6.000871291354867 0.6778953377545089
-87.37134909596662 -5.978855015768078 0.6715177285260221
-86.87065368567455 -5.956708971951079 0.6651544446792019
-86.36995827538247 -5.934433233330088 0.6588057446296769
-85.8692628650904 -5.912027873331345 0.6524718867930861
-85.36856745479834 -5.889492965381079 0.6461531295850633
-84.86787204450626 -5.866828582905507 0.6398497314212406
-84.36717663421419 -5.844034799330876 0.633561950717257
-83.86648122392211 -5.821111688083404 0.6272900458887463
-83.36578581363004 -5.798059322589319 0.6210342753513369
-82.86509040333797 -5.774877776274851 0.6147948975206681
-82.36439499304589 -5.751567122566245 0.6085721708123806
-81.86369958275382 -5.728127434889702 0.6023663536420976
-81.36300417246176 -5.704558786671468 0.5961777044254581
-80.86230876216968 -5.680861251337776 0.5900064815780943
-80.36161335187761 -5.65703490231485 0.5838529435156541
-79.86091794158554 -5.633079813028909 0.5777173486537588
-79.36022253129346 -5.608996056906202 0.5715999554080422
-78.85952712100139 -5.5847837073729405 0.5655010221941452
-78.35883171070932 -5.560442837855357 0.5594208074276998
-77.85813630041724 -5.5359735217796935 0.5533595695243416
-77.35744089012518 -5.511375832572176 0.5473175668997061
-76.85674547983311 -5.486649843659011 0.5412950579694236
-76.35605006954103 -5.461795628466453 0.5352923011491331
-75.85535465924896 -5.436813260420726 0.5293095548544684
-75.35465924895689 -5.411702812948052 0.5233470775010634
-74.85396383866481 -5.3864643594746635 0.517405127504557
-74.35326842837274 -5.3610979734268 0.5114839632805743
-73.85257301808066 -5.335603728230664 0.5055838432447526
-73.3518776077886 -5.3099816973125105 0.499705025812738
-72.85118219749653 -5.284231954098564 0.49384776940014663
-72.35048678720445 -5.258354572015042 0.48801233242263
-71.84979137691238 -5.232349624488181 0.4821989732958094
-71.34909596662031 -5.206217184944217 0.47640795043533113
-70.84840055632823 -5.179957326809371 0.4706395222568218
-70.34770514603616 -5.1535701235098745 0.46489394717592414
-69.8470097357441 -5.127055648471943 0.45917148360825766
-69.34631432545201 -5.100413975121834 0.45347238996947037
-68.84561891515995 -5.073645176885753 0.4477969246751925
-68.34492350486788 -5.046749327189941 0.4421453461410596
-67.8442280945758 -5.019726499460626 0.43651791278270546
-67.34353268428373 -4.99257676712403 0.4309148830157692
-66.84283727399166 -4.965300203606384 0.42533651525587746
-66.34214186369958 -4.937896882333922 0.4197830679186676
-65.84144645340751 -4.910366876732878 0.4142547994197805
-65.34075104311543 -4.882710260229468 0.4087519681748393
-64.84005563282336 -4.854927106249923 0.4032748325994884
-64.3393602225313 -4.827017488220486 0.39782365110935447
-63.838664812239216 -4.798981479567372 0.392398682120082
-63.33796940194715 -4.7708191537168165 0.3870001840473012
-62.83727399165508 -4.742530584095052 0.3816284153066405
-62.336578581363 -4.714115844128296 0.37628363431374434
-61.83588317107093 -4.685575007242781 0.37096609948423764
-61.335187760778865 -4.656908146864756 0.36567606923376483
-60.834492350486784 -4.62811533642042 0.36041380197795436
-60.333796940194716 -4.599196649336017 0.35517955613244356
-59.83310152990265 -4.570152159037773 0.3499735901128662
-59.33240611961057 -4.540981938951932 0.34479616233485255
-58.8317107093185 -4.511686062504696 0.3396475312140417
-58.33101529902643 -4.482264603122312 0.33452795516606915
-57.83031988873435 -4.452717634231012 0.32943769260656874
-57.329624478442284 -4.423045229257015 0.32437700195117425
-56.82892906815022 -4.393247461626553 0.31934614161551944
-56.328233657858135 -4.363324404765864 0.3143453700152452
-55.82753824756607 -4.3332761321011635 0.30937494556597644
-55.326842837273986 -4.303102717058687 0.30443512668335404
-54.82614742698192 -4.2728042330646705 0.2995261717830082
-54.32545201668985 -4.242380753545321 0.29464833928057454
-53.82475660639777 -4.211832351926889 0.2898018875916939
-53.3240611961057 -4.181159101635599 0.2849870751319983
-52.823365785813635 -4.1503610760976795 0.28020416031711437
-52.322670375521554 -4.11943834873936 0.2754534015626884
-51.82197496522949 -4.088390992986868 0.27073505728434344
-51.321279554937405 -4.057219082266434 0.2660493858977222
-50.82058414464535 -4.025922690004281 0.26139664581845845
-50.31988873435327 -3.9945018896266418 0.25677709546218597
-49.81919332406119 -3.9629567545597637 0.2521909932445403
-49.318497913769136 -3.9312873582298464 0.2476385975811517
-48.817802503477054 -3.8994937740631257 0.24312016688766103
-48.31710709318497 -3.8675760754858444 0.2386359595796932
-47.81641168289292 -3.8355343359242275 0.23418623407289618
-47.31571627260084 -3.8033686288045003 0.22977124878289668
-46.81502086230876 -3.771079027552888 0.22539126212532667
-46.3143254520167 -3.7386656055956258 0.22104653251582707
-45.81363004172462 -3.70612843635895 0.21673731837003163
-45.31293463143254 -3.6734675932690712 0.21246387810357237
-44.81223922114049 -3.640683149752236 0.2082264701320813
-44.311543810848406 -3.6077751792346624 0.20402535287120105
-43.810848400556324 -3.574743755142579 0.19986078473655655
-43.31015299026427 -3.5415889509022285 0.195733024143794
-42.80945757997219 -3.508310839939822 0.19164232950853477
-42.30876216968011 -3.4749094956816022 0.18758895924642682
-41.808066759388026 -3.4413849915537873 0.18357317177309507
-41.30737134909597 -3.4077374009826236 0.17959522550417506
-40.80667593880389 -3.3739667973943255 0.1756553788553077
-40.30598052851181 -3.340073254215118 0.1717538902421214
-39.80528511821976 -3.306056844871262 0.1678910180802553
-39.304589707927676 -3.2719176427889436 0.16406702078533786
-38.803894297635594 -3.2376557213944124 0.16028215677301172
-38.30319888734354 -3.2032711541139114 0.15653668445890356
-37.80250347705146 -3.1687640143736373 0.15283086225865605
-37.30180806675938 -3.13413437559984 0.14916494858789586
-36.801112656467325 -3.0993823112187555 0.14553920186226388
-36.30041724617524 -3.0645078946565945 0.1419538804973921
-35.79972183588316 -3.029511199339589 0.13840924290891077
-35.29902642559111 -2.9943922986939895 0.1349055475124643
-34.79833101529903 -2.959151266146003 0.13144305272367585
-34.297635605006946 -2.923788175121865 0.12802201695819337
-33.79694019471489 -2.8883030990478047 0.12464269863164179
-33.29624478442281 -2.8526961113500504 0.12130535615965488
-32.79554937413073 -2.816967285454838 0.11801024795787352
-32.294853963838676 -2.781116694788389 0.11475763244192616
-31.794158553546595 -2.745144412776939 0.1115477680274537
-31.293463143254513 -2.709050512846703 0.10838091313008813
-30.79276773296246 -2.672835068423916 0.10525732616546146
-30.29207232267038 -2.6364981529348213 0.10217726554921458
-29.791376912378297 -2.6000398398056404 0.0991409896969706
-29.290681502086244 -2.563460202462602 0.09614875702438108
-28.789986091794162 -2.526759314331913 0.09320082594706203
-28.28929068150208 -2.4899372488398384 0.09029745488066321
-27.788595271210028 -2.452994079412606 0.08743890224081308
-27.287899860917946 -2.4159298794764026 0.08462542644314008
-26.787204450625865 -2.378744722457499 0.08185728590329044
-26.28650904033381 -2.3414386817821167 0.07913473903689616
-25.78581363004173 -2.3040118308764703 0.07645804425958569
-25.28511821974965 -2.2664642431668027 0.07382745998699636
-24.784422809457595 -2.2287959920793425 0.07124324463476195
-24.283727399165514 -2.191007151040304 0.0687056566185198
-23.783031988873432 -2.1530977934759306 0.066214954353909
-23.28233657858135 -2.1150679928124503 0.0637713962565527
-22.781641168289298 -2.076917822476085 0.06137524074209355
-22.280945757997216 -2.0386473558930702 0.059026746226161775
-21.780250347705135 -2.000256666489649 0.05672617112439471
-21.27955493741308 -1.9617458276920146 0.05447377385242613
-20.778859527121 -1.9231149129264167 0.05226981282589516
-20.27816411682892 -1.8843639956190983 0.050114546460428455
-19.777468706536865 -1.8454931491962667 0.04800823317166514
-19.276773296244784 -1.8065024470841577 0.04595113137524076
-18.776077885952702 -1.767391962709 0.04394349948678555
-18.27538247566065 -1.7281617694970435 0.04198559592193685
-17.774687065368568 -1.6888119408744742 0.040077679096331975
-17.273991655076486 -1.6493425502675563 0.038220007425606495
-16.773296244784433 -1.6097536711025113 0.03641283932538353
-16.27260083449235 -1.5700453768055609 0.03465643321130929
-15.77190542420027 -1.5302177408029407 0.032951047499015784
-15.271210013908217 -1.4902708365208865 0.03129694060413679
-14.770514603616135 -1.4502047373855986 0.029694370942300763
-14.269819193324054 -1.4100195168233411 0.028143596929159242
-13.769123783032 -1.3697152482603285 0.026644876980324694
-13.268428372739919 -1.3292920051227823 0.025198469511448662
-12.767732962447838 -1.2887498608369454 0.02380463293816315
-12.267037552155784 -1.2480888888290322 0.022463625676089505
-11.766342141863703 -1.2073091625252856 0.021175706140881045
-11.265646731571621 -1.1664107553519343 0.01994113274815912
-10.764951321279568 -1.1253937407352068 0.018760163913566386
-10.264255910987487 -1.0842581921013177 0.0176330580527313
-9.763560500695405 -1.0430173852573015 0.016554019471488168
-9.262865090403352 -1.001854937413075 0.015520472878998636
-8.76216968011127 -0.960274687065369 0.014628984700973582
-8.261474269819189 -0.9188317107093181 0.013809735744089006
-7.760778859527136 -0.8779360222531306 0.01301073713490962
