Polar data for NACA 0012 at Re = 2000000.0
Alpha (deg) Cl Cd
-180.0 -10.700039385591486 1.9790638656537842
-179.49930458970792 -10.696270978030176 1.9738795625443863
-178.99860917941587 -10.692299312586309 1.9686581867448947
-178.49791376912378 -10.6881249096571 1.9634000358450674
-177.9972183588317 -10.683748289639771 1.9581054074346795
-177.49652294853965 -10.679169972931545 1.9527745991034955
-176.99582753824757 -10.674390479929622 1.947407908441284
-176.4951321279555 -10.669410331031228 1.9420056330378124
-175.99443671766343 -10.664230046633579 1.9365680704828492
-175.49374130737135 -10.658850147133895 1.9310955183661616
-174.99304589707927 -10.653271152929397 1.9255882742775219
-174.49235048678722 -10.647493584417292 1.9200466358066892
-173.99165507649514 -10.64151796199481 1.9144709005434368
-173.49095966620305 -10.635344806059157 1.9088613660775344
-172.990264255911 -10.628974637007554 1.9032183299987429
-172.48956884561892 -10.622407975237222 1.897542089896838
-171.98887343532684 -10.61564534114538 1.8918329433615835
-171.48817802503476 -10.608687255129245 1.8860911879827462
-170.9874826147427 -10.601534237586028 1.8803171213500995
-170.48678720445062 -10.594186808912939 1.8745110410534016
-169.98609179415854 -10.586645489507218 1.8686732446824301
-169.4853963838665 -10.578910799766058 1.8628040298269486
-168.9847009735744 -10.570983260086697 1.8569036940767223
-168.48400556328232 -10.562863390866346 1.8509725350215263
-167.98331015299027 -10.554551712502215 1.8450108502511213
-167.4826147426982 -10.546048745391525 1.8390189373552772
-166.9819193324061 -10.537355009931504 1.8329970939237654
-166.48122392211405 -10.528471026519357 1.8269456175463485
-165.98052851182197 -10.51939731555231 1.8208648058127999
-165.4798331015299 -10.510134397427572 1.814754956312881
-164.97913769123784 -10.500682792542355 1.8086163666363628
-164.47844228094576 -10.491043021293892 1.8024493343730157
-163.97774687065368 -10.481215604079397 1.7962541571126032
-163.47705146036162 -10.471201061296073 1.7900311324448932
-162.97635605006954 -10.46099991334116 1.783780557959659
-162.47566063977746 -10.450612680611863 1.7775027312466651
-161.9749652294854 -10.440039883505394 1.7711979498956794
-161.47426981919332 -10.429282042418984 1.7648665114964643
-160.97357440890124 -10.418339677749843 1.758508713638797
-160.4728789986092 -10.407213309895182 1.7521248539124432
-159.9721835883171 -10.395903459252226 1.745715229907164
-159.47148817802503 -10.384410646218198 1.7392801392127328
-158.97079276773297 -10.372735391190306 1.732819879418921
-158.4700973574409 -10.360878214565767 1.7263347481154874
-157.9694019471488 -10.348839636741802 1.719825042892209
-157.46870653685676 -10.336620178115625 1.7132910613388432
-156.96801112656468 -10.324220359084466 1.7067331010451667
-156.4673157162726 -10.311640700045524 1.7001514596009457
-155.96662030598054 -10.298881721396038 1.6935464345959481
-155.46592489568846 -10.285943943533207 1.6869183236199383
-154.96522948539638 -10.272827886854243 1.6802674242626843
-154.46453407510432 -10.259534071756386 1.6735940341139575
-153.96383866481224 -10.246063018636834 1.666898450763524
-153.46314325452016 -10.232415247892819 1.6601809718011538
-152.9624478442281 -10.218591279921553 1.653441894816611
-152.46175243393603 -10.20459163512025 1.6466815173996654
-151.96105702364395 -10.190416833886124 1.6399001371400832
-151.4603616133519 -10.176067396616405 1.6330980516276377
-150.9596662030598 -10.16154384370831 1.6262755584520914
-150.45897079276773 -10.14684669555904 1.6194329552032105
-149.95827538247568 -10.131976472565823 1.612570539470772
-149.4575799721836 -10.116933695125871 1.605688608844531
-148.9568845618915 -10.10171888363641 1.598787460914263
-148.45618915159943 -10.086332558494655 1.5918673932697374
-147.95549374130738 -10.070775240097825 1.5849287035007187
-147.4547983310153 -10.055047448843135 1.5779716891969784
-146.95410292072324 -10.03914970512779 1.5709966479482755
-146.45340751043116 -10.023082529349027 1.564003877344387
-145.95271210013908 -10.006846441904058 1.556993674975077
-145.452016689847 -9.990441963190099 1.5499663384301154
-144.95132127955495 -9.973869613604363 1.5429221652992666
-144.45062586926286 -9.957129913544064 1.535861453172302
-143.94993045897078 -9.940223383406435 1.5287844996389843
-143.44923504867873 -9.923150543588674 1.5216916022890885
-142.94853963838665 -9.905911914488025 1.514583058712379
-142.44784422809457 -9.88850801650168 1.50745916649862
-141.9471488178025 -9.870939370026862 1.500320223237587
-141.44645340751043 -9.853206495460798 1.4931665265190404
-140.94575799721835 -9.835309913200698 1.4859983739327536
-140.44506258692627 -9.817250143643777 1.478816063068491
-139.94436717663422 -9.79902770718727 1.4716198915160206
-139.44367176634213 -9.780643124228378 1.4644101568651156
-138.94297635605005 -9.762096915164308 1.457187156705535
-138.442280945758 -9.7433896003923 1.4499511886270557
-137.94158553546592 -9.72452170030956 1.4427025502194386
-137.44089012517384 -9.705493735313306 1.4354415390724515
-136.94019471488178 -9.686306225800761 1.4281684527758696
-136.4394993045897 -9.666959692169138 1.4208835889194535
-135.93880389429762 -9.647454654815649 1.4135872450929714
-135.43810848400557 -9.627791634137525 1.4062797188861946
-134.9374130737135 -9.607971150531975 1.3989613078888912
-134.4367176634214 -9.587993724396208 1.3916323096908236
-133.93602225312935 -9.567859876127459 1.3842930218817653
-133.43532684283727 -9.54757012612293 1.3769437420514823
-132.9346314325452 -9.527124994779856 1.3695847677897444
-132.43393602225314 -9.506525002495431 1.362216396686316
-131.93324061196105 -9.485770669666886 1.354838926330963
-131.43254520166897 -9.464862516691442 1.3474526543134608
-130.93184979137692 -9.443801063966314 1.3400578782235737
-130.43115438108484 -9.42258683188871 1.332654895651066
-129.93045897079276 -9.401220340855874 1.3252440041857128
-129.4297635605007 -9.379702111264985 1.317825501417273
-128.92906815020862 -9.35803266351328 1.3103996849355202
-128.42837273991654 -9.336212517997987 1.302966852330222
-127.92767732962449 -9.314242195116302 1.2955273011911466
-127.4269819193324 -9.292122215265453 1.2880813291080582
-126.92628650904032 -9.269853098842662 1.2806292336707266
-126.42559109874827 -9.247435366245144 1.2731713124689232
-125.92489568845619 -9.224869537870108 1.265707863092409
-125.42420027816411 -9.202156134114775 1.2582391831309572
-124.92350486787205 -9.179295675376375 1.2507655701743374
-124.42280945757997 -9.156288682052102 1.2432873218123088
-123.92211404728789 -9.133135674539206 1.2358047356346482
-123.42141863699584 -9.10983717323486 1.22831810923112
-122.92072322670376 -9.086393698536321 1.2208277401914884
-122.42002781641168 -9.062805770840791 1.2133339261055252
-121.91933240611961 -9.039073910545484 1.2058369645630016
-121.41863699582754 -9.01519863804763 1.1983371531536822
-120.91794158553546 -8.991180473744423 1.1908347894673277
-120.41724617524339 -8.967019938033106 1.183330171093715
-119.91655076495132 -8.942717551310894 1.175823595622612
-119.41585535465924 -8.918273833974988 1.1683153606437813
-118.91515994436718 -8.893689306422617 1.1608057637469962
-118.41446453407511 -8.868964489050983 1.1532951025220175
-117.91376912378303 -8.844099902257328 1.1457836745586203
-117.41307371349096 -8.819096066438854 1.1382717774465707
-116.91237830319889 -8.793953501992776 1.1307597087756331
-116.41168289290681 -8.768672729316323 1.123247766135579
-115.91098748261474 -8.743254268806703 1.1157362471161765
-115.41029207232268 -8.717698640861139 1.1082254493071897
-114.9095966620306 -8.692006365876844 1.1007156702983867
-114.40890125173853 -8.666177964251043 1.0932072076795425
-113.90820584144646 -8.640213956380942 1.0857003590404108
-113.40751043115438 -8.614114862663763 1.078195421970774
-112.90681502086231 -8.587881203496723 1.0706926940603925
-112.40611961057024 -8.561513499277043 1.063192472899038
-111.90542420027816 -8.535012270401944 1.0556950560764768
-111.4047287899861 -8.508378037268637 1.048200741182475
-110.90403337969401 -8.481611320274341 1.0407098258068004
-110.40333796940195 -8.454712639816266 1.0332226075392228
-109.90264255910988 -8.427682516291641 1.0257393839695101
-109.4019471488178 -8.400521470097674 1.0182604526874304
-108.90125173852573 -8.373230021631594 1.0107861112827443
-108.40055632823366 -8.345808691290609 1.0033166573452341
-107.89986091794158 -8.318257999471934 0.9958523884646518
-107.39916550764951 -8.290578466572791 0.9883936022307794
-106.89847009735745 -8.262770612990396 0.9809405962333743
-106.39777468706536 -8.23483495912197 0.973493668062206
-105.8970792767733 -8.20677202536473 0.9660531153070516
-105.39638386648123 -8.178582332115896 0.95861923555767
-104.89568845618915 -8.150266399772677 0.9511923264038257
-104.39499304589708 -8.121824748732296 0.9437726854352971
-103.89429763560501 -8.093257899391974 0.9363606102418452
-103.39360222531293 -8.064566372148926 0.9289563984132397
-102.89290681502086 -8.03575068740034 0.921560347539245
-102.3922114047288 -8.006811365543486 0.914172755209636
-101.89151599443672 -7.977748926975545 0.906793919014172
-101.39082058414465 -7.948563892093754 0.8994241365426313
-100.89012517385257 -7.919256781295312 0.8920637053847714
-100.3894297635605 -7.889828114977449 0.8847129231303691
-99.88873435326843 -7.860278413537381 0.8773720873691869
-99.38803894297635 -7.830608197372323 0.8700414956909893
-98.88734353268428 -7.800817986879489 0.8627214456855513
-98.38664812239222 -7.7709083024561085 0.8554122349426391
-97.88595271210013 -7.74087966449939 0.848114161052017
-97.38525730180807 -7.710732593406549 0.8408275216034583
-96.884561891516 -7.680467609574814 0.8335526141867274
-96.38386648122392 -7.650085233401372 0.826289736391587
-95.88317107093185 -7.6195859852834875 0.8190391858078191
-95.38247566063978 -7.588970385618341 0.8118012600251757
-94.8817802503477 -7.558238954803153 0.8045762566334337
-94.38108484005564 -7.527392213235162 0.7973644732223591
-93.88038942976357 -7.4964306813115815 0.7901662073817254
-93.37969401947149 -7.465354879429592 0.7829817567012843
-92.87899860917942 -7.434165327986472 0.7758114187708217
-92.37830319888734 -7.402862547379394 0.7686554911800948
-91.87760778859527 -7.371447058005588 0.7615142715188751
-91.3769123783032 -7.339919380262268 0.7543880573769287
-90.87621696801112 -7.30828003454665 0.747277146344029
-90.37552155771905 -7.276529541255963 0.7401818360099367
-89.87482614742699 -7.244668420787415 0.7331024239644234
-89.3741307371349 -7.2126971935382205 0.7260392077972498
-88.87343532684284 -7.180616379905617 0.7189924850981982
-88.37273991655077 -7.1484265002867975 0.7119625534570223
-87.87204450625869 -7.116128075078999 0.7049497104635024
-87.37134909596662 -7.083721624679415 0.697954253707387
-86.87065368567455 -7.051207669485288 0.6909764807784705
-86.36995827538247 -7.018586729893814 0.6840166892664997
-85.8692628650904 -6.9858593263022275 0.6770751767612514
-85.36856745479834 -6.953025979107737 0.670152240852497
-84.86787204450626 -6.9200872087075656 0.6632481791299903
-84.36717663421419 -6.88704353549892 0.6563632891835117
-83.86648122392211 -6.8538954798790375 0.6494978686028255
-83.36578581363004 -6.8206435622451185 0.6426522149777015
-82.86509040333797 -6.787288302994371 0.6358266258979023
-82.36439499304589 -6.753830222524053 0.6290213989532011
-81.86369958275382 -6.720269841231337 0.6222368317333641
-81.36300417246176 -6.686607679513452 0.6154732218281539
-80.86230876216968 -6.652844257767628 0.6087308668273402
-80.36161335187761 -6.618980096391086 0.6020100643207053
-79.86091794158554 -6.5850157157810205 0.5953111118979973
-79.36022253129346 -6.550951636334675 0.5886343071489933
-78.85952712100139 -6.516788378449236 0.5819799476634594
-78.35883171070932 -6.482526462521955 0.5753483310311635
-77.85813630041724 -6.448166408950032 0.5687397548418788
-77.35744089012518 -6.413708738130689 0.562154516685368
-76.85674547983311 -6.379153970461127 0.5555929141513901
-76.35605006954103 -6.344502626338583 0.5490552448297291
-75.85535465924896 -6.309755226160258 0.542541806310144
-75.35465924895689 -6.274912290323394 0.5360528961824081
-74.85396383866481 -6.239974339225194 0.5295888120362823
-74.35326842837274 -6.2049418932628715 0.5231498514615415
-73.85257301808066 -6.169815472833635 0.516736312047943
-73.3518776077886 -6.1345955983347285 0.510348491385269
-72.85118219749653 -6.099282790163359 0.5039866870632715
-72.35048678720445 -6.063877568716736 0.49765119667173263
-71.84979137691238 -6.02838045439208 0.4913423178004096
-71.34909596662031 -5.992791967586607 0.4850603480390828
-70.84840055632823 -5.957112628697539 0.478805584977506
-70.34770514603616 -5.921342958122098 0.4725783262054578
-69.8470097357441 -5.885483476257479 0.46637886931269545
-69.34631432545201 -5.849534703500931 0.4602075118889958
-68.84561891515995 -5.813497160249648 0.4540645515241285
-68.34492350486788 -5.7773713669008675 0.4479502858078491
-67.8442280945758 -5.741157843851775 0.441865012329938
-67.34353268428373 -5.704857111499637 0.43580902868015425
-66.84283727399166 -5.668469690241617 0.42978263244827286
-66.34214186369958 -5.631996100474952 0.42378612122405646
-65.84144645340751 -5.595436862596879 0.41781979259727475
-65.34075104311543 -5.558792497004598 0.4118839441576957
-64.84005563282336 -5.52206352409531 0.4059788734950872
-64.3393602225313 -5.485250464266274 0.4001048781992208
-63.838664812239216 -5.448353837914675 0.3942622558598502
-63.33796940194715 -5.411374165437758 0.38845130406676465
-62.83727399165508 -5.374311967232709 0.3826723204097161
-62.336578581363 -5.337167763696749 0.3769256024784743
-61.83588317107093 -5.299942075227124 0.37121144786281246
-61.335187760778865 -5.2626354222210185 0.3655301541525021
-60.834492350486784 -5.22524832507567 0.35988201893729344
-60.333796940194716 -5.1877813041883005 0.35426733980697567
-59.83310152990265 -5.150234879956097 0.3486864143513043
-59.33240611961057 -5.112609572776316 0.34313954016004733
-58.8317107093185 -5.074905903046131 0.33762701482297264
-58.33101529902643 -5.0371243911628 0.33214913592985174
-57.83031988873435 -4.999265557523538 0.3267062010704579
-57.329624478442284 -4.961329922525531 0.32129850783454483
-56.82892906815022 -4.923318006566015 0.3159263538118876
-56.328233657858135 -4.885230330042221 0.3105900365922595
-55.82753824756607 -4.8470674133513345 0.30528985376541773
-55.326842837273986 -4.808829776890606 0.30002610292114273
-54.82614742698192 -4.7705179410572445 0.2947990816491918
-54.32545201668985 -4.732132426248429 0.28960908753932746
-53.82475660639777 -4.693673752861438 0.2844564181813337
-53.3240611961057 -4.655142441293437 0.27934137116497315
-52.823365785813635 -4.616539011941677 0.2742642440800048
-52.322670375521554 -4.577863985203374 0.2692253345162091
-51.82197496522949 -4.53911788147572 0.26422494006334507
-51.321279554937405 -4.50030122115596 0.25926335831118064
-50.82058414464535 -4.4614145246412935 0.25434088684949263
-50.31988873435327 -4.422458312328944 0.2494578232680401
-49.81919332406119 -4.383433104616147 0.24461446515659457
-49.318497913769136 -4.3443394219000755 0.2398111101049204
-48.817802503477054 -4.30517778457798 0.2350480557027873
-48.31710709318497 -4.265948713047083 0.23032559953996323
-47.81641168289292 -4.226652727704563 0.22564403920621612
-47.31571627260084 -4.1872903489477 0.2210036722913139
-46.81502086230876 -4.147862097173645 0.21640479638502808
-46.3143254520167 -4.108368492779663 0.21184770907711947
-45.81363004172462 -4.06881005616294 0.20733270795736314
-45.31293463143254 -4.0291873077207345 0.202860090615527
-44.81223922114049 -3.9895007678502044 0.19843015464136837
-44.311543810848406 -3.9497509569486358 0.19404319762466227
-43.810848400556324 -3.909938395413194 0.18969951715517663
-43.31015299026427 -3.8700636036411087 0.18539941082268296
-42.80945757997219 -3.8301271020296017 0.181143176216935
-42.30876216968011 -3.790129410975881 0.1769311109277184
-41.808066759388026 -3.7500710508771977 0.1727635125447905
-41.30737134909597 -3.709952542130724 0.1686406786579192
-40.80667593880389 -3.66977440513371 0.16456290685688313
-40.30598052851181 -3.62953716028335 0.160530494731436
-39.80528511821976 -3.589241327976895 0.15654373987135284
-39.304589707927676 -3.5488874286115237 0.1526029398664016
-38.803894297635594 -3.508475982584459 0.1487083923063467
-38.30319888734354 -3.468007510292951 0.14486039478096313
-37.80250347705146 -3.427482532134187 0.1410592448800082
-37.30180806675938 -3.3869015685053814 0.1373052401932534
-36.801112656467325 -3.346265139803778 0.13359867831047378
-36.30041724617524 -3.305573766426578 0.12993985682143017
-35.79972183588316 -3.264827968770982 0.1263290733158905
-35.29902642559111 -3.2240282672342477 0.12276662538362626
-34.79833101529903 -3.1831751822135477 0.11925281061440185
-34.297635605006946 -3.1422692341061396 0.11578792659799231
-33.79694019471489 -3.1013109433092314 0.11237227092415136
-33.29624478442281 -3.0603008302200028 0.10900614118265406
-32.79554937413073 -3.0192394152357185 0.105689834963279
-32.294853963838676 -2.9781272187535865 0.1024236498557799
-31.794158553546595 -2.936964761170808 0.0992078834499247
-31.293463143254513 -2.8957525628846046 0.09604283333549202
-30.79276773296246 -2.854491144292199 0.09292879710224267
-30.29207232267038 -2.813181025790813 0.08986607233994459
-29.791376912378297 -2.771822727777634 0.08685495663836218
-29.290681502086244 -2.7304167706499403 0.08389574758727047
-28.789986091794162 -2.688963674804869 0.08098874277643386
-28.28929068150208 -2.6474639606396995 0.07813423979562029
-27.788595271210028 -2.6059181485516536 0.07533253623460123
-27.287899860917946 -2.564326758937911 0.07258392968313754
-26.787204450625865 -2.522690312195687 0.06988871773099714
-26.28650904033381 -2.481009328722246 0.06724719796795864
-25.78581363004173 -2.4392843289147397 0.06465966798378286
-25.28511821974965 -2.3975158331704467 0.06212642536823065
-24.784422809457595 -2.355704361886554 0.0596477677110806
-24.283727399165514 -2.313850435460269 0.05722399260209354
-23.783031988873432 -2.271954574288829 0.05485539763104452
-23.28233657858135 -2.2300172987694555 0.05254228038769437
-22.781641168289298 -2.188039129299357 0.05028493846181814
-22.280945757997216 -2.146020586275741 0.04808366944317666
-21.780250347705135 -2.103962190095844 0.045938770921537864
-21.27955493741308 -2.0618644611568744 0.043850540486680356
-20.778859527121 -2.01972791985604 0.04181927572835431
-20.27816411682892 -1.9775530865905768 0.03984527423634543
-19.777468706536865 -1.9353404817576791 0.03792883360040389
-19.276773296244784 -1.8930906257545832 0.03607025141031184
-18.776077885952702 -1.8508040389785112 0.034269825255833664
-18.27538247566065 -1.8084812418266711 0.03252785272673375
-17.774687065368568 -1.7661227546962568 0.03084463141278715
-17.273991655076486 -1.723729097984533 0.02922045890374403
-16.773296244784433 -1.6813007920886793 0.027655632789393647
-16.27260083449235 -1.6388383574059322 0.026150450659496838
-15.77190542420027 -1.5963423143334996 0.024705210103814434
-15.271210013908217 -1.553813183268618 0.023320208712121482
-14.770514603616135 -1.5112514846084526 0.02199574407418592
-14.269819193324054 -1.468657738750311 0.020732113779772132
-13.769123783032 -1.4260324660913017 0.019529615418644508
-13.268428372739919 -1.3833761870287322 0.01838854658057809
-12.767732962447838 -1.3406894219597678 0.01730920485534082
-12.267037552155784 -1.2979726912816592 0.016291887832697083
-11.766342141863703 -1.2552265153916 0.015336893102411264
-11.265646731571621 -1.2124514146868126 0.01444451825425841
-10.764951321279568 -1.1696479095645334 0.013615060878006457
-10.264255910987487 -1.126816520421956 0.012848818563416242
-9.763560500695405 -1.0839607788595267 0.012138984700973568
-9.262865090403352 -1.040674408901253 0.01154709318497915
-8.76216968011127 -0.9980076495132132 0.011028873435326847
-8.261474269819189 -0.9468659248956879 0.010462851182197492
-7.760778859527136 -0.8834055632823385 0.009916425591098763
