Polar data for NACA 0012 at Re = 970689.6551724139
Alpha (deg) Cl Cd
-180.0 -6.574315571694897 1.4948787013384555
-179.49930458970792 -6.582555382610768 1.4910075324935403
-178.99860917941587 -6.59067429700456 1.4871091365757463
-178.49791376912378 -6.598672106944558 1.4831837300048132
-177.9972183588317 -6.606548604499051 1.4792315292004827
-177.49652294853965 -6.614303581736327 1.4752527505824886
-176.99582753824757 -6.621936830724674 1.4712476105705725
-176.4951321279555 -6.629448143532376 1.4672163255844743
-175.99443671766343 -6.6368373122277236 1.4631591120439322
-175.49374130737135 -6.644104128879003 1.4590761863686843
-174.99304589707927 -6.651248385554504 1.4549677649784722
-174.49235048678722 -6.658269874322509 1.4508340642930333
-173.99165507649514 -6.665168387251312 1.4466753007321074
-173.49095966620305 -6.671943716409197 1.4424916907154308
-172.990264255911 -6.678595653864451 1.4382834506627462
-172.48956884561892 -6.685123991685361 1.4340507969937917
-171.98887343532684 -6.691528521940218 1.4297939461283062
-171.48817802503476 -6.697809036697309 1.425513114486028
-170.9874826147427 -6.7039653280249185 1.421208518486696
-170.48678720445062 -6.709997187991331 1.4168803745500502
-169.98609179415854 -6.715904408664845 1.4125288990958305
-169.4853963838665 -6.721686782113738 1.408154308543774
-168.9847009735744 -6.727344100406303 1.4037568193136207
-168.48400556328232 -6.732876155610822 1.3993366478251097
-167.98331015299027 -6.738282739795591 1.3948940104979808
-167.4826147426982 -6.74356364502889 1.3904291237519704
-166.9819193324061 -6.74871866337901 1.3859422040068219
-166.48122392211405 -6.753747586914234 1.38143346768227
-165.98052851182197 -6.758650207702858 1.3769031311980588
-165.4798331015299 -6.763426317813162 1.3723514109739223
-164.97913769123784 -6.768075709313437 1.3677785234296003
-164.47844228094576 -6.772598174271969 1.3631846849848344
-163.97774687065368 -6.776993504757047 1.3585701120593618
-163.47705146036162 -6.781261492836957 1.3539350210729226
-162.97635605006954 -6.7854019305799875 1.3492796284452548
-162.47566063977746 -6.789414610054426 1.3446041505960993
-161.9749652294854 -6.793299323328559 1.339908803945194
-161.47426981919332 -6.797055862470676 1.3351938049122756
-160.97357440890124 -6.800684019549062 1.3304593699170872
-160.4728789986092 -6.804183586632006 1.3257057153793663
-159.9721835883171 -6.807554355787796 1.320933057718851
-159.47148817802503 -6.810796119084718 1.3161416133552828
-158.97079276773297 -6.81390866859106 1.311331598708399
-158.4700973574409 -6.816891796375111 1.306503230197938
-157.9694019471488 -6.819745294505158 1.3016567242436403
-157.46870653685676 -6.822468955049488 1.2967922972652433
-156.96801112656468 -6.825062570076386 1.2919101656824867
-156.4673157162726 -6.827525931654145 1.2870105459151124
-155.96662030598054 -6.829858831851047 1.2820936543828558
-155.46592489568846 -6.8320610627353835 1.2771597075054586
-154.96522948539638 -6.83413241637544 1.2722089217026553
-154.46453407510432 -6.836072684839503 1.2672415133941912
-153.96383866481224 -6.8378816601958645 1.2622576989998018
-153.46314325452016 -6.839559134512807 1.257257694939227
-152.9624478442281 -6.841104899858618 1.2522417176322047
-152.46175243393603 -6.842518748301591 1.2472099834984751
-151.96105702364395 -6.843800471910009 1.242162708957778
-151.4603616133519 -6.84494986275216 1.2371001104298516
-150.9596662030598 -6.84596671289633 1.232022404334433
-150.45897079276773 -6.846850814410808 1.2269298070912649
-149.95827538247568 -6.847601959363883 1.2218225351200862
-149.4575799721836 -6.8482199398238395 1.2167008048406307
-148.9568845618915 -6.848704547858969 1.2115648326726427
-148.45618915159943 -6.849055575537556 1.2064148350358603
-147.95549374130738 -6.849272814927889 1.2012510283500235
-147.4547983310153 -6.849356058098253 1.1960736290348668
-146.95410292072324 -6.8493050971169405 1.1908828535101346
-146.45340751043116 -6.849119724052238 1.1856789181955623
-145.95271210013908 -6.8487997309724244 1.180462039510889
-145.452016689847 -6.848344909945799 1.1752324338758606
-144.95132127955495 -6.847755053040644 1.1699903177102058
-144.45062586926286 -6.84702995232525 1.1647359074336714
-143.94993045897078 -6.846169399867896 1.1594694194659911
-143.44923504867873 -6.845173187736878 1.1541910702269076
-142.94853963838665 -6.844041108000481 1.1489010761361615
-142.44784422809457 -6.842772952726993 1.1435996536134876
-141.9471488178025 -6.8413685139846985 1.1382870190786238
-141.44645340751043 -6.839827583841893 1.1329633889513155
-140.94575799721835 -6.838149954366851 1.1276289796512973
-140.44506258692627 -6.8363354176278746 1.122284007598308
-139.94436717663422 -6.834383765693237 1.1169286892120904
-139.44367176634213 -6.832294790631239 1.11156324091238
-138.94297635605005 -6.8300682845101575 1.10618787911892
-138.442280945758 -6.827704039398287 1.1008028202514397
-137.94158553546592 -6.825201847363911 1.0954082807296917
-137.44089012517384 -6.822561500475323 1.090004476973405
-136.94019471488178 -6.8197827908008035 1.0845916254023231
-136.4394993045897 -6.816865510408641 1.0791699424361825
-135.93880389429762 -6.813809451367123 1.0737396444947238
-135.43810848400557 -6.810614405744542 1.068300947997688
-134.9374130737135 -6.807280165609183 1.062854069364812
-134.4367176634214 -6.803806523029331 1.0573992250158317
-133.93602225312935 -6.800193270073277 1.0519366313704948
-133.43532684283727 -6.796440198809303 1.0464665048485295
-132.9346314325452 -6.792547101305703 1.0409890618696822
-132.43393602225314 -6.788513769630758 1.0355045188536927
-131.93324061196105 -6.784339995852764 1.0300130922202955
-131.43254520166897 -6.7800255720400004 1.0245149983892323
-130.93184979137692 -6.77557029026076 1.0190104537802422
-130.43115438108484 -6.770973942583331 1.0134996748130625
-129.93045897079276 -6.766236321075994 1.0079828779074338
-129.4297635605007 -6.761357217807043 1.002460279483097
-128.92906815020862 -6.75633642484476 0.9969320959597849
-128.42837273991654 -6.751173734257441 0.9913985437572437
-127.92767732962449 -6.745868938113362 0.9858598392952087
-127.4269819193324 -6.740421828480824 0.9803161989934208
-126.92628650904032 -6.734832197428102 0.9747678392716155
-126.42559109874827 -6.729099837023491 0.9692149765495361
-125.92489568845619 -6.723224539335276 0.963657827246921
-125.42420027816411 -6.717206096431746 0.9580966077835062
-124.92350486787205 -6.711044300381189 0.9525315345790337
-124.42280945757997 -6.704738943251887 0.9469628240532397
-123.92211404728789 -6.698289817112131 0.9413906926258713
-123.42141863699584 -6.691696714030212 0.9358153567166541
-122.92072322670376 -6.684959426074417 0.9302370327453395
-122.42002781641168 -6.6780777453130264 0.9246559371316587
-121.91933240611961 -6.671051463814334 0.9190722862953569
-121.41863699582754 -6.6638803736466246 0.9134862966561668
-120.91794158553546 -6.656564266878189 0.9078981846338292
-120.41724617524339 -6.64910293557731 0.9023081666480885
-119.91655076495132 -6.641496171812279 0.8967164591186767
-119.41585535465924 -6.633743767651382 0.8911232784653398
-118.91515994436718 -6.625845515162907 0.8855288411078097
-118.41446453407511 -6.61780120641514 0.8799333634658308
-117.91376912378303 -6.609610633476373 0.8743370619591404
-117.41307371349096 -6.601273588414888 0.8687401530074792
-116.91237830319889 -6.592789863298974 0.8631428530305791
-116.41168289290681 -6.584159250196918 0.8575453784481899
-115.91098748261474 -6.575381541177014 0.8519479456800398
-115.41029207232268 -6.566456528307541 0.8463507711458804
-114.9095966620306 -6.5573840036567885 0.84075407126544
-114.40890125173853 -6.548163759293048 0.8351580624584611
-113.90820584144646 -6.538795587284601 0.8295629611446846
-113.40751043115438 -6.529279279699742 0.8239689837438442
-112.90681502086231 -6.5196146286067505 0.8183763466756877
-112.40611961057024 -6.509801426073923 0.8127852663599471
-111.90542420027816 -6.499839464169539 0.8071959592163631
-111.4047287899861 -6.489728534961892 0.8016086416646802
-110.90403337969401 -6.479468430519266 0.7960235301246266
-110.40333796940195 -6.4690589429099505 0.7904408410159502
-109.90264255910988 -6.458499864202232 0.7848607907583867
-109.4019471488178 -6.447790986464395 0.7792835957716748
-108.90125173852573 -6.436932101764733 0.7737094724755573
-108.40055632823366 -6.425923002171527 0.7681386372897696
-107.89986091794158 -6.414763479753071 0.7625713066340472
-107.39916550764951 -6.403453326577648 0.7570076969281396
-106.89847009735745 -6.39199233471355 0.751448024591779
-106.39777468706536 -6.380380296229059 0.7458925060447041
-105.8970792767733 -6.368617003192466 0.7403413577066542
-105.39638386648123 -6.356702247672058 0.73479479599737
-104.89568845618915 -6.34463582173612 0.7292530373365886
-104.39499304589708 -6.332417517452943 0.7237162981440546
-103.89429763560501 -6.320047126890814 0.7181847948395015
-103.39360222531293 -6.307524442118017 0.7126587438426684
-102.89290681502086 -6.294849255202846 0.707138361573296
-102.3922114047288 -6.282021358213584 0.7016238644511252
-101.89151599443672 -6.269040543218517 0.6961154688958897
-101.39082058414465 -6.255906602285937 0.690613391327332
-100.89012517385257 -6.242619327484127 0.6851178481651947
-100.3894297635605 -6.229178510881376 0.6796290558292097
-99.88873435326843 -6.215583944545977 0.6741472307391232
-99.38803894297635 -6.201835420546208 0.668672589314667
-98.88734353268428 -6.1879327309503624 0.6632053479755837
-98.38664812239222 -6.173875667826731 0.6577457231416142
-97.88595271210013 -6.15966402324359 0.6522939312324973
-97.38525730180807 -6.145297589269242 0.6468501886679687
-96.884561891516 -6.130776157971959 0.6414147118677727
-96.38386648122392 -6.116099521420037 0.635987717251641
-95.88317107093185 -6.1012674716817665 0.63056942123932
-95.38247566063978 -6.086279800825429 0.6251600402505433
-94.8817802503477 -6.071136300919313 0.6197597907050498
-94.38108484005564 -6.055836764031709 0.6143688890225858
-93.88038942976357 -6.040380982230901 0.6089875516228831
-93.37969401947149 -6.0247687475851786 0.6036159949256807
-92.87899860917942 -6.008999852162824 0.5982544353507249
-92.37830319888734 -5.993074088032135 0.5929030893177492
-91.87760778859527 -5.976991247261393 0.5875621732464926
-91.3769123783032 -5.960751121918887 0.5822319035566943
-90.87621696801112 -5.944353504072901 0.576912496668095
-90.37552155771905 -5.927798185791727 0.5716041690004336
-89.87482614742699 -5.91108495914365 0.5663071369734494
-89.3741307371349 -5.8942136161969545 0.5610216170068794
-88.87343532684284 -5.877183949019938 0.5557478255204609
-88.37273991655077 -5.859995749680876 0.5504859789339382
-87.87204450625869 -5.842648810248067 0.5452362936670523
-87.37134909596662 -5.825142922789788 0.5399989861395313
-86.87065368567455 -5.8074778793743365 0.5347742727711269
-86.36995827538247 -5.789653472069994 0.5295623699815637
-85.8692628650904 -5.7716694929450485 0.524363494190595
-85.36856745479834 -5.75352573406779 0.5191778618179563
-84.86787204450626 -5.735221987506498 0.5140056892833831
-84.36717663421419 -5.7167580453294695 0.5088471930066143
-83.86648122392211 -5.698133699604992 0.5037025894073925
-83.36578581363004 -5.679348742401349 0.4985720949054533
-82.86509040333797 -5.660402965786827 0.49345592592053733
-82.36439499304589 -5.641296161829719 0.4883542988723908
-81.86369958275382 -5.622028122598308 0.4832674301807385
-81.36300417246176 -5.6025986401608785 0.4781955362653283
-80.86230876216968 -5.58300750658572 0.4731388335458939
-80.36161335187761 -5.563254513941129 0.46809753844218327
-79.86091794158554 -5.54333945429538 0.46307186737392825
-79.36022253129346 -5.523262119716773 0.4580620367608714
-78.85952712100139 -5.503022302273586 0.4530682630227465
-78.35883171070932 -5.482619794034107 0.4480907625792996
-77.85813630041724 -5.462054387066629 0.4431297518502644
-77.35744089012518 -5.441325873439433 0.4381854472553923
-76.85674547983311 -5.420434045220811 0.43325806521440113
-76.35605006954103 -5.399378694479052 0.42834782214704226
-75.85535465924896 -5.378159613282443 0.4234549344730565
-75.35465924895689 -5.356776593699265 0.41857961861218107
-74.85396383866481 -5.335229427797812 0.41372209098415147
-74.35326842837274 -5.313517907646372 0.40888256800871203
-73.85257301808066 -5.291641825313225 0.4040612661055929
-73.3518776077886 -5.269600972866665 0.39925840169454907
-72.85118219749653 -5.247395142374981 0.3944741911953036
-72.35048678720445 -5.225024125906455 0.38970885102760255
-71.84979137691238 -5.20248771552938 0.38496259761118323
-71.34909596662031 -5.17978570331204 0.38023564736578996
-70.84840055632823 -5.1569178813227206 0.37552821671115644
-70.34770514603616 -5.133884041629718 0.37084052206702167
-69.8470097357441 -5.110683976301305 0.3661727798531247
-69.34631432545201 -5.08731747740578 0.36152520648920805
-68.84561891515995 -5.063784337011435 0.35689801839500723
-68.34492350486788 -5.040084347186547 0.3522914319902666
-67.8442280945758 -5.016217299999405 0.3477056636947162
-67.34353268428373 -4.992182987518302 0.3431409299281041
-66.84283727399166 -4.967981201811525 0.3385974471101638
-66.34214186369958 -4.943611734947351 0.33407543166063625
-65.84144645340751 -4.919074378994083 0.32957509999926216
-65.34075104311543 -4.894368926019994 0.32509666854577524
-64.84005563282336 -4.869495168093381 0.32064035371991984
-64.3393602225313 -4.8444528972825305 0.3162063719414314
-63.838664812239216 -4.819241905655731 0.31179493963005256
-63.33796940194715 -4.793861985281262 0.30740627320552405
-62.83727399165508 -4.768312928227421 0.3030405890875796
-62.336578581363 -4.742594526562489 0.2986981036959582
-61.83588317107093 -4.716706572354753 0.29437903345039884
-61.335187760778865 -4.690648857672506 0.29008359477065127
-60.834492350486784 -4.6644211745840325 0.28581200407644025
-60.333796940194716 -4.638023315157619 0.2815644777875137
-59.83310152990265 -4.611455071461555 0.2773412323236035
-59.33240611961057 -4.584716235564129 0.27314248410445763
-58.8317107093185 -4.557806599533623 0.26896844954980614
-58.33101529902643 -4.530725955438331 0.26481934507939164
-57.83031988873435 -4.503474095346534 0.2606953871129585
-57.329624478442284 -4.476050811326524 0.2565967920702421
-56.82892906815022 -4.448455895446593 0.2525237763709727
-56.328233657858135 -4.4206891397750185 0.2484765564349034
-55.82753824756607 -4.392750336380094 0.244455348681768
-55.326842837273986 -4.364639277330107 0.24046036953130545
-54.82614742698192 -4.3363557546933444 0.23649183540324947
-54.32545201668985 -4.307899560538087 0.2325499627173444
-53.82475660639777 -4.279270486932632 0.22863496789333104
-53.3240611961057 -4.250468325945268 0.22474706735094485
-52.823365785813635 -4.22149286964427 0.22088647750992663
-52.322670375521554 -4.19234391009794 0.21705341479001894
-51.82197496522949 -4.163021239374555 0.21324809561094837
-51.321279554937405 -4.13352464954241 0.20947073639246816
-50.82058414464535 -4.103853932669787 0.2057215535543102
-50.31988873435327 -4.074008880824974 0.2020007635162171
-49.81919332406119 -4.043989286076255 0.19830858269792606
-49.318497913769136 -4.013794940491935 0.19464522751917435
-48.817802503477054 -3.9834256361402796 0.19101091439970452
-48.31710709318497 -3.952881165089587 0.18740585975925028
-47.81641168289292 -3.9221613194081444 0.18383028001755952
-47.31571627260084 -3.8912658911642426 0.1802843915943606
-46.81502086230876 -3.8601946724261618 0.17676841090939965
-46.3143254520167 -3.828947455262189 0.1732825543824139
-45.81363004172462 -3.797524031740619 0.16982703843314595
-45.31293463143254 -3.765924193929732 0.166402079481333
-44.81223922114049 -3.7341477338978217 0.16300789394670523
-44.311543810848406 -3.702194443713176 0.15964469824901228
-43.810848400556324 -3.6700641154440747 0.15631270880799142
-43.31015299026427 -3.6377565411588124 0.15301214204338343
-42.80945757997219 -3.6052715129256763 0.1497432143749149
-42.30876216968011 -3.5726088228129464 0.1465061422223426
-41.808066759388026 -3.5397682628889173 0.14330114200539312
-41.30737134909597 -3.5067496252218797 0.14012843014381082
-40.80667593880389 -3.4735527018801102 0.1369882230573365
-40.30598052851181 -3.4401772849319032 0.1338807371657038
-39.80528511821976 -3.406623166445553 0.13080618888865536
-39.304589707927676 -3.372890138489333 0.12776479464593016
-38.803894297635594 -3.338977993131537 0.12475677085726189
-38.30319888734354 -3.304886522440456 0.12178233394240023
-37.80250347705146 -3.2706155184843704 0.1188417003210771
-37.30180806675938 -3.2361647733315673 0.11593508641302974
-36.801112656467325 -3.2015340790503517 0.1130627086380025
-36.30041724617524 -3.1667232277089896 0.11022478341573083
-35.79972183588316 -3.131732011375779 0.10742152716595377
-35.29902642559111 -3.0965602221190105 0.10465315630841565
-34.79833101529903 -3.0612076520069573 0.1019198872628484
-34.297635605006946 -3.0256740931079174 0.09922193644899635
-33.79694019471489 -2.989959337490185 0.09655952028659498
-33.29624478442281 -2.9540631772220296 0.09393285519538508
-32.79554937413073 -2.9179854043717492 0.09134215759510744
-32.294853963838676 -2.8817258110076454 0.08878764390549754
-31.794158553546595 -2.8452841891979768 0.08626953054629438
-31.293463143254513 -2.808660331011045 0.08378803393724055
-30.79276773296246 -2.7718540285151443 0.08134337049807505
-30.29207232267038 -2.7348650737785514 0.07893575664853336
-29.791376912378297 -2.697693258869557 0.0765654088083545
-29.290681502086244 -2.660338375856459 0.0742325433972828
-28.789986091794162 -2.6228002168075237 0.07193737683505197
-28.28929068150208 -2.5850785737910558 0.06968012554140635
-27.788595271210028 -2.5471732388753425 0.06746100593607962
-27.287899860917946 -2.5090840041286606 0.06528023443880904
-26.787204450625865 -2.470810661619301 0.06313802746934072
-26.28650904033381 -2.432353003415561 0.06103460144741368
-25.78581363004173 -2.3937108215857146 0.058970172792765174
-25.28511821974965 -2.3548839081980555 0.056944957925127104
-24.784422809457595 -2.315872055320882 0.05495917326424915
-24.283727399165514 -2.276675055022456 0.0530130352298579
-23.783031988873432 -2.2372926993710864 0.051106760241710125
-23.28233657858135 -2.1977247804350535 0.04924056471952887
-22.781641168289298 -2.157971090282648 0.0474146650830638
-22.280945757997216 -2.1180314209821534 0.04562927775204684
-21.780250347705135 -2.0779055646018536 0.043884619146217
-21.27955493741308 -2.0375933132100466 0.042180905685318626
-20.778859527121 -1.9970944588750124 0.040518353789090744
-20.27816411682892 -1.9564087936650454 0.03889717987726882
-19.777468706536865 -1.9155361096484258 0.03731760036959009
-19.276773296244784 -1.8744761988934373 0.03577983168580068
-18.776077885952702 -1.833228853468385 0.03428409024563073
-18.27538247566065 -1.7917938654415346 0.03283059246882991
-17.774687065368568 -1.7501710268811843 0.03141955477513014
-17.273991655076486 -1.7083601298556284 0.030051193584268665
-16.773296244784433 -1.666360966433147 0.028725725315986272
-16.27260083449235 -1.6241733286820237 0.02744336639002909
-15.77190542420027 -1.5817970086705566 0.026204333226130805
-15.271210013908217 -1.5392317984670258 0.025008842244028662
-14.770514603616135 -1.496477490139715 0.023857109863459902
-14.269819193324054 -1.4535338757569152 0.022749352504172426
-13.769123783032 -1.410400747386924 0.02168578658589637
-13.268428372739919 -1.3670778970980146 0.02066662852837431
-12.767732962447838 -1.323565116958485 0.019692094751347033
-12.267037552155784 -1.2798621990366152 0.01876240167455001
-11.766342141863703 -1.2359689354006926 0.017877765717725813
-11.265646731571621 -1.191885118119015 0.017038403300611682
-10.764951321279568 -1.1476105392598557 0.016244530842951965
-10.264255910987487 -1.1031449908915087 0.01549636476447147
-9.763560500695405 -1.0585095966620301 0.014788984700973567
-9.262865090403352 -1.0154600834492362 0.013997899860917967
-8.76216968011127 -0.973203894297636 0.013235090403337976
-8.261474269819189 -0.9307023643949927 0.01258083449235048
