Polar data for NACA 0012 at Re = 1794137.931034483
Alpha (deg) Cl Cd
-180.0 -10.880795244455577 2.0653299535297927
-179.49930458970792 -10.876982683776028 2.0598518539838433
-178.99860917941587 -10.872964312380446 2.0543351418465243
-178.49791376912378 -10.868740647317125 2.048780130518867
-177.9972183588317 -10.864312205634342 2.0431871334018976
-177.49652294853965 -10.859679504380367 2.0375564638966437
-176.99582753824757 -10.854843060603486 2.0318884354041304
-176.4951321279555 -10.84980339135198 2.026183361325392
-175.99443671766343 -10.84456101367413 2.020441555061454
-175.49374130737135 -10.839116444618213 2.014663330013341
-174.99304589707927 -10.833470201232519 2.0088489995820855
-174.49235048678722 -10.827622800565312 2.0029988771687086
-173.99165507649514 -10.82157475966488 1.997113276174248
-173.49095966620305 -10.815326595579506 1.9911925099997219
-172.990264255911 -10.808878825357457 1.9852368920461614
-172.48956884561892 -10.802231966047032 1.979246735714598
-171.98887343532684 -10.795386534696501 1.9732223544060594
-171.48817802503476 -10.78834304835414 1.96716406152157
-170.9874826147427 -10.781102024068247 1.9610721704621574
-170.48678720445062 -10.773663978887068 1.9549469946288496
-169.98609179415854 -10.76602942985891 1.9487888474226778
-169.4853963838665 -10.758198894032049 1.9425980422446663
-168.9847009735744 -10.75017288845476 1.9363748924958446
-168.48400556328232 -10.741951930175325 1.9301197115772406
-167.98331015299027 -10.733536536242024 1.923832812889882
-167.4826147426982 -10.724927223703137 1.9175145098347985
-166.9819193324061 -10.71612450960695 1.911165115813016
-166.48122392211405 -10.707128911001728 1.9047849442255607
-165.98052851182197 -10.697940944935763 1.8983743084734654
-165.4798331015299 -10.68856112845733 1.8919335219577529
-164.97913769123784 -10.678989978614709 1.8854628980794526
-164.47844228094576 -10.669228012456191 1.878962750239594
-163.97774687065368 -10.659275747030037 1.8724333918392033
-163.47705146036162 -10.649133699384535 1.8658751362793082
-162.97635605006954 -10.638802386567974 1.8592882969609383
-162.47566063977746 -10.628282325628625 1.8526731872851232
-161.9749652294854 -10.617574033614765 1.8460301206528853
-161.47426981919332 -10.60667802757468 1.8393594104652542
-160.97357440890124 -10.595594824556649 1.8326613701232612
-160.4728789986092 -10.584324941608951 1.8259363130279307
-159.9721835883171 -10.572868895779866 1.819184552580292
-159.47148817802503 -10.561227204117678 1.8124064021813733
-158.97079276773297 -10.549400383670665 1.8056021752322038
-158.4700973574409 -10.537388951487099 1.798772185133806
-157.9694019471488 -10.525193424615267 1.7919167452872133
-157.46870653685676 -10.512814320103445 1.7850361690934498
-156.96801112656468 -10.50025215499992 1.7781307699535485
-156.4673157162726 -10.487507446352964 1.7712008612685302
-155.96662030598054 -10.474580711210866 1.7642467564394297
-155.46592489568846 -10.461472466621899 1.757268768867268
-154.96522948539638 -10.448183229634342 1.7502672119530778
-154.46453407510432 -10.434713517296487 1.7432423990978871
-153.96383866481224 -10.421063846656597 1.736194643702722
-153.46314325452016 -10.407234734762966 1.7291242591686138
-152.9624478442281 -10.39322669866386 1.7220315588965867
-152.46175243393603 -10.379040255407567 1.7149168562876649
-151.96105702364395 -10.364675922042366 1.7077804647428834
-151.4603616133519 -10.350134215616539 1.7006226976632681
-150.9596662030598 -10.33541565317837 1.6934438684498452
-150.45897079276773 -10.320520751776122 1.6862442905036423
-149.95827538247568 -10.305450028458097 1.6790242772256945
-149.4575799721836 -10.29020400027256 1.671784142017017
-148.9568845618915 -10.27478318426779 1.6645241982786483
-148.45618915159943 -10.259188097492082 1.6572447594116126
-147.95549374130738 -10.243419256993697 1.6499461388169343
-147.4547983310153 -10.22747717982093 1.6426286498956482
-146.95410292072324 -10.211362383022056 1.6352926060487785
-146.45340751043116 -10.195075383645346 1.6279383206773494
-145.95271210013908 -10.178616698739095 1.6205661071823925
-145.452016689847 -10.16198684535157 1.6131762789649406
-144.95132127955495 -10.145186340531062 1.605769149426013
-144.45062586926286 -10.128215701325846 1.5983450319666423
-143.94993045897078 -10.111075444784198 1.590904239987855
-143.44923504867873 -10.093766087954403 1.5834470868906805
-142.94853963838665 -10.076288147884746 1.5759738860761465
-142.44784422809457 -10.058642141623494 1.5684849509452792
-141.9471488178025 -10.040828586218932 1.5609805948991045
-141.44645340751043 -10.022847998719342 1.5534611313386537
-140.94575799721835 -10.004700896173002 1.5459268736649565
-140.44506258692627 -9.9863877956282 1.5383781352790336
-139.94436717663422 -9.967909214133208 1.5308152295819215
-139.44367176634213 -9.94926566873631 1.5232384699746464
-138.94297635605005 -9.93045767648578 1.5156481698582307
-138.442280945758 -9.911485754429894 1.5080446426337022
-137.94158553546592 -9.892350419616946 1.5004282017020976
-137.44089012517384 -9.873052189095208 1.4927991604644357
-136.94019471488178 -9.853591579912973 1.4851578323217516
-136.4394993045897 -9.833969109118492 1.4775045306750676
-135.93880389429762 -9.814185293760065 1.4698395689254116
-135.43810848400557 -9.794240650885978 1.4621632604738166
-134.9374130737135 -9.774135697544498 1.4544759187213052
-134.4367176634214 -9.753870950783906 1.446777857068907
-133.93602225312935 -9.73344692765248 1.4390693889176513
-133.43532684283727 -9.712864145198516 1.4313508276685627
-132.9346314325452 -9.692123120470278 1.4236224867226759
-132.43393602225314 -9.67122437051605 1.415884679481008
-131.93324061196105 -9.650168412384112 1.4081377193445976
-131.43254520166897 -9.62895576312274 1.4003819197144654
-130.93184979137692 -9.607586939780226 1.3926175939916443
-130.43115438108484 -9.586062459404836 1.384845055577157
-129.93045897079276 -9.56438283904486 1.37706461787204
-129.4297635605007 -9.542548595748585 1.3692765942773106
-128.92906815020862 -9.520560246564266 1.3614812981939983
-128.42837273991654 -9.498418308540202 1.3536790430231416
-127.92767732962449 -9.476123298724666 1.345870142165754
-127.4269819193324 -9.453675734165948 1.338054909022874
-126.92628650904032 -9.431076131912306 1.330233656995524
-126.42559109874827 -9.408325009012046 1.3224066994847354
-125.92489568845619 -9.385422882513424 1.3145743498915343
-125.42420027816411 -9.362370269464748 1.3067369216169467
-124.92350486787205 -9.339167686914266 1.2988947280620002
-124.42280945757997 -9.315815651910285 1.2910480826277282
-123.92211404728789 -9.292314681501075 1.2831972987151565
-123.42141863699584 -9.268665292734909 1.2753426897253113
-122.92072322670376 -9.244868002660077 1.2674845690592202
-122.42002781641168 -9.220923328324844 1.2596232501179094
-121.91933240611961 -9.196831786777516 1.2517590463024137
-121.41863699582754 -9.172593895066349 1.2438922710137539
-120.91794158553546 -9.148210170239636 1.2360232376529594
-120.41724617524339 -9.123681129345655 1.2281522596210581
-119.91655076495132 -9.099007289432684 1.2202796503190831
-119.41585535465924 -9.074189167548987 1.2124057231480516
-118.91515994436718 -9.049227280742876 1.2045307915090055
-118.41446453407511 -9.02412214606261 1.1966551688029603
-117.91376912378303 -8.998874280556464 1.188779168430949
-117.41307371349096 -8.973484201272747 1.180903103794003
-116.91237830319889 -8.947952425259707 1.173027288293143
-116.41168289290681 -8.92227946956563 1.165152035329402
-115.91098748261474 -8.896465851238816 1.1572776583038027
-115.41029207232268 -8.87051208732752 1.1494044706173798
-114.9095966620306 -8.844418694880034 1.141532785671156
-114.40890125173853 -8.818186190944644 1.1336629168661623
-113.90820584144646 -8.791815092569614 1.125795177603425
-113.40751043115438 -8.765305916803236 1.1179298812839717
-112.90681502086231 -8.738659180693794 1.1100673413088304
-112.40611961057024 -8.711875401289554 1.1022078710790324
-111.90542420027816 -8.684955095638806 1.0943517839955983
-111.4047287899861 -8.657898780789829 1.0864993934595648
-110.90403337969401 -8.630706973790893 1.0786510128719509
-110.40333796940195 -8.603380191690292 1.0708069556337878
-109.90264255910988 -8.575918951536288 1.062967535146107
-109.4019471488178 -8.548323770377188 1.0551330648099344
-108.90125173852573 -8.520595165261248 1.047303858026296
-108.40055632823366 -8.492733653236762 1.0394802281962252
-107.89986091794158 -8.464739751351999 1.0316624887207388
-107.39916550764951 -8.436613976655252 1.023850953000879
-106.89847009735745 -8.408356846194792 1.0160459344376576
-106.39777468706536 -8.379968877018882 1.008247746432113
-105.8970792767733 -8.351450586175844 1.0004567023852764
-105.39638386648123 -8.322802490713919 0.9926731156981669
-104.89568845618915 -8.294025107681406 0.9848972997718158
-104.39499304589708 -8.265118954126585 0.977129568007251
-103.89429763560501 -8.236084547097747 0.9693702338055038
-103.39360222531293 -8.206922403643127 0.9616196105675948
-102.89290681502086 -8.177633040811045 0.9538780116945554
-102.3922114047288 -8.148216975649781 0.9461457505874188
-101.89151599443672 -8.118674725207583 0.9384231406472056
-101.39082058414465 -8.089006806532787 0.9307104952749435
-100.89012517385257 -8.059213736673613 0.9230081278716676
-100.3894297635605 -8.029296032678374 0.915316351838395
-99.88873435326843 -7.999254211595351 0.907635480576164
-99.38803894297635 -7.969088790472797 0.8999658274859973
-98.88734353268428 -7.93880028635902 0.8923077059689243
-98.38664812239222 -7.9083892163022975 0.884661429425971
-97.88595271210013 -7.877856097350894 0.8770273112581689
-97.38525730180807 -7.847201446553101 0.8694056648665421
-96.884561891516 -7.816425780957197 0.8617968036521203
-96.38386648122392 -7.78552961761146 0.8542010410159312
-95.88317107093185 -7.754513473564168 0.8466186903589991
-95.38247566063978 -7.723377865863612 0.8390500650823624
-94.8817802503477 -7.692123311558043 0.8314954785870347
-94.38108484005564 -7.660750327695774 0.8239552442740544
-93.88038942976357 -7.6292594313250754 0.8164296755444477
-93.37969401947149 -7.597651139494212 0.8089190857992316
-92.87899860917942 -7.565925969251489 0.8014237884394534
-92.37830319888734 -7.534084437645164 0.793944096866125
-91.87760778859527 -7.502127061723535 0.786480324480283
-91.3769123783032 -7.470054358534868 0.7790327846829518
-90.87621696801112 -7.437866845127439 0.7716017908751572
-90.37552155771905 -7.405565038549548 0.7641876564579343
-89.87482614742699 -7.3731494558494655 0.7567906948323037
-89.3741307371349 -7.340620614075463 0.7494112193992949
-88.87343532684284 -7.307979030275825 0.7420495435599394
-88.37273991655077 -7.275225221498837 0.7347059807152613
-87.87204450625869 -7.242359704792784 0.7273808442662902
-87.37134909596662 -7.209382997205922 0.7200744476140469
-86.87065368567455 -7.176295615786558 0.7127871041595769
-86.36995827538247 -7.143098077582956 0.7055191273038867
-85.8692628650904 -7.109790899643394 0.69827083044802
-85.36856745479834 -7.0763745990161775 0.6910425269930046
-84.86787204450626 -7.042849692749557 0.6838345303398542
-84.36717663421419 -7.009216697891817 0.6766471538896072
-83.86648122392211 -6.975476131491264 0.6694807110432931
-83.36578581363004 -6.94162851059614 0.6623355152019345
-82.86509040333797 -6.907674352254731 0.655211879766559
-82.36439499304589 -6.8736141735153575 0.6481101181382017
-81.86369958275382 -6.839448491426247 0.6410305437178815
-81.36300417246176 -6.805177823035714 0.6339734699066332
-80.86230876216968 -6.770802685392014 0.6269392101054757
-80.36161335187761 -6.736323595543454 0.6199280777154476
-79.86091794158554 -6.701741070538291 0.612940386137573
-79.36022253129346 -6.6670556274248165 0.6059764487728762
-78.85952712100139 -6.632267783251302 0.5990365790223885
-78.35883171070932 -6.597378055066039 0.592121090287136
-77.85813630041724 -6.562386959917299 0.5852302959681447
-77.35744089012518 -6.527295014853373 0.5783645094664548
-76.85674547983311 -6.492102736922527 0.5715240441830763
-76.35605006954103 -6.456810643173044 0.5647092135190478
-75.85535465924896 -6.421419250653202 0.5579203308753952
-75.35465924895689 -6.385929076411295 0.551157709653148
-74.85396383866481 -6.350340637495592 0.5444216632533289
-74.35326842837274 -6.31465445095438 0.5377125050769761
-73.85257301808066 -6.27887103383592 0.5310305485251016
-73.3518776077886 -6.242990903188521 0.5243761069987526
-72.85118219749653 -6.207014576060424 0.5177494938989339
-72.35048678720445 -6.1709425694999505 0.511151022626691
-71.84979137691238 -6.134775400555356 0.5045810065830482
-71.34909596662031 -6.098513586274941 0.4980397591690314
-70.84840055632823 -6.062157643706954 0.49152759378567035
-70.34770514603616 -6.0257080898996955 0.4850448238339927
-69.8470097357441 -5.9891654419014495 0.47859176271501747
-69.34631432545201 -5.952530216760473 0.4721687238297848
-68.84561891515995 -5.9158029315250795 0.46577602057932255
-68.34492350486788 -5.878984103243526 0.45941396636465137
-67.8442280945758 -5.8420742489640825 0.4530828745867973
-67.34353268428373 -5.805073885735056 0.4467830586467988
-66.84283727399166 -5.767983530604725 0.440514831945673
-66.34214186369958 -5.730803700621352 0.43427850788445477
-65.84144645340751 -5.693534912833209 0.4280743998641737
-65.34075104311543 -5.656177684288594 0.42190282128585055
-64.84005563282336 -5.618732532035787 0.4157640855505166
-64.3393602225313 -5.581199973123071 0.40965850605919607
-63.838664812239216 -5.543580524598711 0.40358639621292214
-63.33796940194715 -5.5058747035110125 0.3975480694127279
-62.83727399165508 -5.468083026908212 0.391543839059627
-62.336578581363 -5.430206011838622 0.38557401855465245
-61.83588317107093 -5.392244175350521 0.3796389212988339
-61.335187760778865 -5.354198034492193 0.37373886069320805
-60.834492350486784 -5.316068106311897 0.36787415013878844
-60.333796940194716 -5.277854907857944 0.36204510303661175
-59.83310152990265 -5.239558956178585 0.3562520327876969
-59.33240611961057 -5.201180768322097 0.3504952527930859
-58.8317107093185 -5.162720861336781 0.3447750764537906
-58.33101529902643 -5.124179752270906 0.3390918171708476
-57.83031988873435 -5.085557958172758 0.3334457883452847
-57.329624478442284 -5.0468559960906285 0.3278373033781369
-56.82892906815022 -5.008074383072754 0.3222666756704141
-56.328233657858135 -4.969213636167468 0.316734218623162
-55.82753824756607 -4.930274272423028 0.31124024563740116
-55.326842837273986 -4.8912568088876975 0.30578507011415235
-54.82614742698192 -4.852161762609776 0.30036900545445755
-54.32545201668985 -4.81298965063752 0.29499236505932325
-53.82475660639777 -4.773740990019243 0.2896554623298021
-53.3240611961057 -4.734416297803215 0.2843586106669077
-52.823365785813635 -4.695016091037695 0.27910212347167496
-52.322670375521554 -4.655540886771001 0.2738863141451281
-51.82197496522949 -4.615991202051377 0.2687114960882949
-51.321279554937405 -4.576367553927121 0.26357798270220323
-50.82058414464535 -4.5366704594464915 0.2584860873878808
-50.31988873435327 -4.496900435657801 0.2534361235463519
-49.81919332406119 -4.457057999609305 0.248428404578655
-49.318497913769136 -4.417143668349319 0.24346324388581075
-48.817802503477054 -4.377157958926056 0.23854095486883986
-48.31710709318497 -4.337101388387851 0.23366185092878433
-47.81641168289292 -4.296974473782975 0.2288262454666684
-47.31571627260084 -4.256777732159713 0.22403445188351634
-46.81502086230876 -4.216511680566307 0.21928678358035236
-46.3143254520167 -4.176176836051078 0.21458355395821493
-45.81363004172462 -4.13577371566229 0.2099250764181212
-45.31293463143254 -4.0953028364482345 0.2053116643611096
-44.81223922114049 -4.0547647154571616 0.20074363118819372
-44.311543810848406 -4.014159869737406 0.19622129030041557
-43.810848400556324 -3.9734888163371673 0.19174495509879586
-43.31015299026427 -3.932752072304816 0.1873149389843659
-42.80945757997219 -3.891950154688552 0.18293155535814287
-42.30876216968011 -3.851083580536703 0.1785951176211723
-41.808066759388026 -3.8101528668975186 0.17430593917447135
-41.30737134909597 -3.769158530819319 0.1700643334190678
-40.80667593880389 -3.7281010893503685 0.16587061375599654
-40.30598052851181 -3.6869810595389163 0.16172509358627474
-39.80528511821976 -3.6457989584332973 0.15762808631094083
-39.304589707927676 -3.6045553030817397 0.15357990533101906
-38.803894297635594 -3.5632506105325286 0.14958086404752657
-38.30319888734354 -3.521885397833999 0.14563127586151603
-37.80250347705146 -3.4804601820343644 0.14173145417399036
-37.30180806675938 -3.4389754801819317 0.13788171238598446
-36.801112656467325 -3.397431809324993 0.13408236389853678
-36.30041724617524 -3.3558296865118047 0.13033372211266092
-35.79972183588316 -3.3141696287906592 0.12663610042939177
-35.29902642559111 -3.2724521532098487 0.12298981224975714
-34.79833101529903 -3.2306777768176227 0.11939517097478836
-34.297635605006946 -3.1888470166622875 0.11585249000550257
-33.79694019471489 -3.1469603897921283 0.1123620827429418
-33.29624478442281 -3.1050184132553875 0.1089242625881196
-32.79554937413073 -3.063021604100393 0.10553934294207445
-32.294853963838676 -3.0209704793753724 0.1022076372058377
-31.794158553546595 -2.978865556128647 0.09892945878041226
-31.293463143254513 -2.9367073514084803 0.09570512106686502
-30.79276773296246 -2.89449638226315 0.09253493746618824
-30.29207232267038 -2.8522331657409348 0.08941922137943104
-29.791376912378297 -2.8099182188901333 0.086358286207607
-29.290681502086244 -2.767552058759038 0.08335244535175457
-28.789986091794162 -2.7251352023958555 0.080402012212898
-28.28929068150208 -2.682668166848935 0.07750730019207219
-27.788595271210028 -2.6401514691665477 0.07466862269029784
-27.287899860917946 -2.597585626396943 0.07188629310859562
-26.787204450625865 -2.554971155588434 0.069160624848004
-26.28650904033381 -2.5123085737892987 0.06649193130955433
-25.78581363004173 -2.469598398047773 0.06388052589426374
-25.28511821974965 -2.426841145412177 0.06132672200316358
-24.784422809457595 -2.384037332930796 0.0588308330372852
-24.283727399165514 -2.3411874776518653 0.056393172397652847
-23.783031988873432 -2.298292096623734 0.054014053485301416
-23.28233657858135 -2.2553517068946087 0.051693789701240944
-22.781641168289298 -2.2123668255128175 0.04943269444652054
-22.280945757997216 -2.169337969526631 0.0472310811221609
-21.780250347705135 -2.1262656559843203 0.04508926312917916
-21.27955493741308 -2.0831504019341915 0.04300755386861732
-20.778859527121 -2.039992724424473 0.04098626674149608
-20.27816411682892 -1.9967931405034998 0.039025715148846785
-19.777468706536865 -1.9535521672194998 0.037126212491704336
-19.276773296244784 -1.9102703216208008 0.035288072171078766
-18.776077885952702 -1.8669481207556453 0.033511607588001424
-18.27538247566065 -1.8235860816723468 0.03179713214351787
-17.774687065368568 -1.780184721419169 0.03014495923864169
-17.273991655076486 -1.736744557044383 0.028555402274400676
-16.773296244784433 -1.6932661055962734 0.027028774651819076
-16.27260083449235 -1.6497498841231328 0.02556538977194245
-15.77190542420027 -1.6061964096732249 0.02416556103578793
-15.271210013908217 -1.562606199294856 0.022829601844376213
-14.770514603616135 -1.518979770036247 0.021557825598738645
-14.269819193324054 -1.4753176389457616 0.020350545699910128
-13.769123783032 -1.4316203230716065 0.019208075548914905
-13.268428372739919 -1.3878883394621164 0.01813072854677722
-12.767732962447838 -1.3441222051655268 0.017118818094535526
-12.267037552155784 -1.300322437230144 0.016172657593199857
-11.766342141863703 -1.256489552704232 0.015292560443815773
-11.265646731571621 -1.2126240686360967 0.01447884004740041
-10.764951321279568 -1.1687265020739739 0.013731809804992223
-10.264255910987487 -1.1247973700661982 0.013051783117601246
-9.763560500695405 -1.0808406119610565 0.012431543810848393
-9.262865090403352 -1.0373063977746884 0.011834923504867888
-8.76216968011127 -0.9944844228094579 0.01129216968011127
-8.261474269819189 -0.9477272600834488 0.010758080667593876
