Polar data for NACA 0012 at Re = 1862758.6206896554
Alpha (deg) Cl Cd
-180.0 -11.191727000027857 2.094151879400062
-179.49930458970792 -11.186932499483941 2.0886071411077083
-178.99860917941587 -11.181925878015665 2.0830231887696113
-178.49791376912378 -11.176707712386342 2.077400340158862
-177.9972183588317 -11.1712785793593 2.071738913048547
-177.49652294853965 -11.16563905569783 2.066039225211755
-176.99582753824757 -11.15978971816526 2.060301594421574
-176.4951321279555 -11.153731143524904 2.0545263384510957
-175.99443671766343 -11.147463908540068 2.048713775073405
-175.49374130737135 -11.140988589974075 2.0428642220615956
-174.99304589707927 -11.134305764590234 2.036977997188753
-174.49235048678722 -11.127416009151855 2.0310554182279663
-173.99165507649514 -11.120319900422253 2.0250968029523246
-173.49095966620305 -11.113018015164744 2.019102469134916
-172.990264255911 -11.105510930142643 2.01307273454883
-172.48956884561892 -11.09779922211926 2.0070079169671544
-171.98887343532684 -11.089883467857916 2.0009083341629808
-171.48817802503476 -11.081764244121917 1.9947743039093953
-170.9874826147427 -11.073442127674578 1.9886061439794889
-170.48678720445062 -11.06491769527921 1.9824041721463443
-169.98609179415854 -11.056191523699141 1.9761687061830602
-169.4853963838665 -11.04726418969766 1.9699000638627153
-168.9847009735744 -11.038136270038105 1.9635985629584065
-168.48400556328232 -11.028808341483778 1.9572645212432198
-167.98331015299027 -11.01928098079799 1.9508982564902413
-167.4826147426982 -11.009554764744063 1.9445000864725623
-166.9819193324061 -10.999630270085301 1.9380703289632726
-166.48122392211405 -10.989508073585029 1.931609301735458
-165.98052851182197 -10.979188752006554 1.9251173225622102
-165.4798331015299 -10.96867288211319 1.9185947092166187
-164.97913769123784 -10.957961040668245 1.912041779471766
-164.47844228094576 -10.947053804435047 1.9054588511007469
-163.97774687065368 -10.935951750176901 1.8988462418766494
-163.47705146036162 -10.92465545465711 1.8922042695725578
-162.97635605006954 -10.91316549463901 1.8855332519615653
-162.47566063977746 -10.9014824468859 1.8788335068167632
-161.9749652294854 -10.8896068881611 1.8721053519112358
-161.47426981919332 -10.877539395227913 1.8653491050180693
-160.97357440890124 -10.865280544849671 1.8585650839103602
-160.4728789986092 -10.85283091378967 1.8517536063611912
-159.9721835883171 -10.84019107881123 1.844914990143652
-159.47148817802503 -10.82736161667767 1.8380495530308354
-158.97079276773297 -10.814343104152304 1.8311576127958278
-158.4700973574409 -10.801136117998432 1.8242394872117151
-157.9694019471488 -10.787741234979375 1.8172954940515889
-157.46870653685676 -10.774159031858456 1.810325951088535
-156.96801112656468 -10.760390085398978 1.8033311760956503
-156.4673157162726 -10.746434972364252 1.796311486846012
-155.96662030598054 -10.73229426951761 1.7892672011127184
-155.46592489568846 -10.717968553622342 1.7821986366688558
-154.96522948539638 -10.703458401441768 1.7751061112875066
-154.46453407510432 -10.688764389739216 1.7679899427417693
-153.96383866481224 -10.67388709527799 1.7608504488047283
-153.46314325452016 -10.658827094821401 1.7536879472494713
-152.9624478442281 -10.64358496513277 1.7465027558490862
-152.46175243393603 -10.628161282975395 1.739295192376668
-151.96105702364395 -10.612556625112607 1.732065574605299
-151.4603616133519 -10.596771568307716 1.7248142203080674
-150.9596662030598 -10.580806689324024 1.7175414472580715
-150.45897079276773 -10.564662564924866 1.7102475732283866
-149.95827538247568 -10.548339771873536 1.7029329159921114
-149.4575799721836 -10.53183888693335 1.6955977933223318
-148.9568845618915 -10.515160486867632 1.688242522992134
-148.45618915159943 -10.498305148439702 1.6808674227746112
-147.95549374130738 -10.481273448412843 1.6734728104428511
-147.4547983310153 -10.4640659635504 1.6660590037699399
-146.95410292072324 -10.446683270615669 1.6586263205289689
-146.45340751043116 -10.429125946371975 1.651175078493026
-145.95271210013908 -10.411394567582615 1.6437055954351953
-145.452016689847 -10.393489711010918 1.6362181891285756
-144.95132127955495 -10.375411953420198 1.6287131773462475
-144.45062586926286 -10.357161871573755 1.6211908778613024
-143.94993045897078 -10.338740042234914 1.61365160844683
-143.44923504867873 -10.32014704216699 1.6060956868759197
-142.94853963838665 -10.301383448133294 1.5985234309216578
-142.44784422809457 -10.282449836897133 1.5909351583571356
-141.9471488178025 -10.263346785221827 1.5833311869554392
-141.44645340751043 -10.24407486987069 1.5757118344896563
-140.94575799721835 -10.224634667607031 1.5680774187328803
-140.44506258692627 -10.205026755194172 1.5604282574581971
-139.94436717663422 -10.185251709395413 1.5527646684386964
-139.44367176634213 -10.165310106974093 1.5450869694474696
-138.94297635605005 -10.145202524693492 1.5373954782575991
-138.442280945758 -10.124929539316955 1.5296905126421765
-137.94158553546592 -10.104491727607776 1.5219723903742948
-137.44089012517384 -10.083889666329267 1.5142414292270365
-136.94019471488178 -10.063123932244753 1.506497946973495
-136.4394993045897 -10.04219510211755 1.498742261386756
-135.93880389429762 -10.02110375271096 1.4909746902399095
-135.43810848400557 -9.999850460788306 1.483195551306043
-134.9374130737135 -9.978435803112891 1.47540516235825
-134.4367176634214 -9.956860356448036 1.467603841169611
-133.93602225312935 -9.935124697557054 1.4597919055132247
-133.43532684283727 -9.913229403203264 1.4519696731621716
-132.9346314325452 -9.891175050149972 1.4441374618895433
-132.43393602225314 -9.868962215160483 1.436295589468431
-131.93324061196105 -9.846591474998132 1.4284443736719192
-131.43254520166897 -9.824063406426223 1.420584132273101
-130.93184979137692 -9.80137858620807 1.4127151830450624
-130.43115438108484 -9.778537591106979 1.404837843760893
-129.93045897079276 -9.755540997886275 1.3969524321936826
-129.4297635605007 -9.732389383309265 1.389059266116517
-128.92906815020862 -9.709083324139268 1.3811586633024862
-128.42837273991654 -9.68562339713959 1.3732509415246794
-127.92767732962449 -9.662010179073551 1.36533641855619
-127.4269819193324 -9.638244246704463 1.357415412170097
-126.92628650904032 -9.614326176795633 1.349488240139497
-126.42559109874827 -9.590256546110385 1.341555220237476
-125.92489568845619 -9.566035931412028 1.333616670237124
-125.42420027816411 -9.54166490946388 1.3256729079115301
-124.92350486787205 -9.517144057029245 1.317724251033779
-124.42280945757997 -9.492473950871446 1.3097710173769619
-123.92211404728789 -9.4676551677538 1.301813524714172
-123.42141863699584 -9.442688284439601 1.2938520908184883
-122.92072322670376 -9.417573877692188 1.2858870334630128
-122.42002781641168 -9.392312524274853 1.277918670420821
-121.91933240611961 -9.36690480095093 1.269947319465013
-121.41863699582754 -9.34135128448371 1.2619732983686662
-120.91794158553546 -9.315652551636514 1.253996924904879
-120.41724617524339 -9.289809179172675 1.246018516846734
-119.91655076495132 -9.263821743855491 1.2380383919673241
-119.41585535465924 -9.237690822448261 1.2300568680397357
-118.91515994436718 -9.211416991714326 1.2220742628370618
-118.41446453407511 -9.185000828416985 1.2140908941323814
-117.91376912378303 -9.158442909319557 1.2061070796987965
-117.41307371349096 -9.131743811185355 1.1981231373093897
-116.91237830319889 -9.104904110777685 1.1901393847372435
-116.41168289290681 -9.077924384859866 1.1821561397554545
-115.91098748261474 -9.050805210195211 1.174173720137109
-115.41029207232268 -9.023547163547047 1.1661924436552946
-114.9095966620306 -8.996150821678658 1.1582126280831047
-114.40890125173853 -8.968616761353385 1.1502345911936216
-113.90820584144646 -8.940945559334526 1.1422586507599386
-113.40751043115438 -8.913137792385402 1.1342851245551453
-112.90681502086231 -8.885194037269326 1.1263143303523278
-112.40611961057024 -8.857114870749616 1.1183465859245756
-111.90542420027816 -8.828900869589578 1.1103822090449784
-111.4047287899861 -8.800552610552533 1.1024215174866205
-110.90403337969401 -8.772070670401778 1.094464829022597
-110.40333796940195 -8.74345562590064 1.0865124614259936
-109.90264255910988 -8.71470805381244 1.0785647324699001
-109.4019471488178 -8.685828530900476 1.070621959927401
-108.90125173852573 -8.656817633928068 1.062684461571591
-108.40055632823366 -8.627675939658534 1.0547525551755597
-107.89986091794158 -8.598404024855181 1.0468265585123862
-107.39916550764951 -8.56900246628133 1.0389067893551707
-106.89847009735745 -8.539471840700283 1.0309935654769975
-106.39777468706536 -8.509812724875356 1.0230872046509527
-105.8970792767733 -8.48002569556989 1.0151880246501277
-105.39638386648123 -8.450111329547159 1.0072963432476103
-104.89568845618915 -8.420070203570493 0.9994124782164919
-104.39499304589708 -8.38990289440321 0.9915367473298586
-103.89429763560501 -8.359609978808624 0.9836694683608
-103.39360222531293 -8.329192033550047 0.975810959082404
-102.89290681502086 -8.298649635390777 0.9679615372677566
-102.3922114047288 -8.267983361094156 0.960121520689958
-101.89151599443672 -8.237193787423461 0.952291227122082
-101.39082058414465 -8.206281491142061 0.9444709743372288
-100.89012517385257 -8.175247049013212 0.9366610801084827
-100.3894297635605 -8.144091037800248 0.9288618622089315
-99.88873435326843 -8.112814034266503 0.9210736384116667
-99.38803894297635 -8.081416615175275 0.9132967264897724
-98.88734353268428 -8.049899357289856 0.905531444216342
-98.38664812239222 -8.018262837373602 0.8977781093644632
-97.88595271210013 -7.986507632189796 0.8900370397072239
-97.38525730180807 -7.954634318501772 0.882308553017719
-96.884561891516 -7.922643473072822 0.8745929670690258
-96.38386648122392 -7.890535672666272 0.8668905996342373
-95.88317107093185 -7.858311494045435 0.8592017684864486
-95.38247566063978 -7.825971513973625 0.8515267913987439
-94.8817802503477 -7.793516309214145 0.8438659861442039
-94.38108484005564 -7.760946456530331 0.8362196704959362
-93.88038942976357 -7.728262532685474 0.8285881622270141
-93.37969401947149 -7.695465114442894 0.8209717791105275
-92.87899860917942 -7.662554778565917 0.8133708389195713
-92.37830319888734 -7.6295321018178415 0.8057856594272332
-91.87760778859527 -7.596397660961995 0.7982165584065994
-91.3769123783032 -7.563152032761683 0.7906638536307595
-90.87621696801112 -7.5297957939802105 0.7831278628728031
-90.37552155771905 -7.496329521380912 0.7756089039058198
-89.87482614742699 -7.462753791727086 0.7681072945028975
-89.3741307371349 -7.429069181782045 0.7606233524371204
-88.87343532684284 -7.395276268309108 0.7531573954815836
-88.37273991655077 -7.361375628071589 0.745709741409373
-87.87204450625869 -7.327367837832814 0.7382807079935818
-87.37134909596662 -7.293253474356047 0.7308706130072855
-86.87065368567455 -7.2590331144046845 0.723479774223595
-86.36995827538247 -7.224707334741962 0.7161085094155786
-85.8692628650904 -7.190276712131227 0.7087571363563347
-85.36856745479834 -7.155741823335814 0.7014259728189531
-84.86787204450626 -7.121103245118985 0.6941153365765145
-84.36717663421419 -7.086361554244097 0.6868255454021119
-83.86648122392211 -7.051517327474454 0.6795569170688476
-83.36578581363004 -7.01657114157337 0.6723097693497879
-82.86509040333797 -6.981523573304135 0.6650844200180315
-82.36439499304589 -6.946375199430091 0.6578811868466732
-81.86369958275382 -6.911126596714536 0.6507003876087902
-81.36300417246176 -6.875778341920797 0.6435423400774758
-80.86230876216968 -6.840331011812151 0.6364073620258248
-80.36161335187761 -6.804785183151989 0.6292957712269234
-79.86091794158554 -6.769141432703553 0.622207885453854
-79.36022253129346 -6.733400337230177 0.615144022479708
-78.85952712100139 -6.6975624734951795 0.6081045000775787
-78.35883171070932 -6.661628418261867 0.6010896360205467
-77.85813630041724 -6.625598748293567 0.5940997480817158
-77.35744089012518 -6.589474040353591 0.5871351540341598
-76.85674547983311 -6.553254871205238 0.5801961716509718
-76.35605006954103 -6.516941817611834 0.5732831187052414
-75.85535465924896 -6.480535456336679 0.5663963129700529
-75.35465924895689 -6.4440363641431135 0.5595360722185101
-74.85396383866481 -6.407445117794421 0.5527027142236884
-74.35326842837274 -6.370762294053937 0.5458965567586775
-73.85257301808066 -6.333988469684951 0.5391179175965617
-73.3518776077886 -6.297124221450827 0.5323671145104465
-72.85118219749653 -6.260170126114805 0.5256444652734056
-72.35048678720445 -6.223126760440249 0.5189502876585375
-71.84979137691238 -6.185994701190457 0.5122848994389193
-71.34909596662031 -6.148774525128762 0.5056486183876496
-70.84840055632823 -6.111466809018457 0.4990417622778145
-70.34770514603616 -6.074072129622867 0.4924646488825053
-69.8470097357441 -6.036591063705278 0.4859175959747992
-69.34631432545201 -5.999024188029044 0.47940092132780365
-68.84561891515995 -5.961372079357472 0.472914942714594
-68.34492350486788 -5.923635314453837 0.46645997790826343
-67.8442280945758 -5.885814470081496 0.46003634468189625
-67.34353268428373 -5.847910123003747 0.4536443608085874
-66.84283727399166 -5.809922849983889 0.4472843440614229
-66.34214186369958 -5.771853227785255 0.44095661221349425
-65.84144645340751 -5.733701833171165 0.4346614830378821
-65.34075104311543 -5.6954692429049105 0.4283992743076832
-64.84005563282336 -5.657156033749819 0.42217030379598364
-64.3393602225313 -5.618762782469195 0.415974889275873
-63.838664812239216 -5.580290065826365 0.40981334852044093
-63.33796940194715 -5.541738460584637 0.40368599930277704
-62.83727399165508 -5.503108543507321 0.3975931593959656
-62.336578581363 -5.464400891357724 0.39153514657309274
-61.83588317107093 -5.4256160808991725 0.38551227860725334
-61.335187760778865 -5.386754688894993 0.37952487327154416
-60.834492350486784 -5.347817292108471 0.3735732483390406
-60.333796940194716 -5.308804467302932 0.36765772158283583
-59.83310152990265 -5.269716791241696 0.3617786107760159
-59.33240611961057 -5.230554840688055 0.3559362336916705
-58.8317107093185 -5.191319192405342 0.35013090810289627
-58.33101529902643 -5.152010423156864 0.3443629517827651
-57.83031988873435 -5.112629109705947 0.3386326825043915
-57.329624478442284 -5.073175828815903 0.33294041804084373
-56.82892906815022 -5.033651157250017 0.32728647616521145
-56.328233657858135 -4.994055671771631 0.32167117465059136
-55.82753824756607 -4.954389949144056 0.316094831270066
-55.326842837273986 -4.914654566130605 0.3105577637967356
-54.82614742698192 -4.874850099494577 0.3050602900036792
-54.32545201668985 -4.834977125999285 0.2996027276639792
-53.82475660639777 -4.795036222408069 0.294185394550736
-53.3240611961057 -4.755027965484229 0.2888086084370356
-52.823365785813635 -4.7149529319910615 0.28347268709596407
-52.322670375521554 -4.674811698691916 0.2781779483006146
-51.82197496522949 -4.634604842350062 0.2729247098240697
-51.321279554937405 -4.594332939728841 0.2677132894394225
-50.82058414464535 -4.55399656759158 0.2625440049197627
-50.31988873435327 -4.513596302701569 0.2574171740381692
-49.81919332406119 -4.47313272182213 0.25233311456774943
-49.318497913769136 -4.432606401716574 0.2472921442815823
-48.817802503477054 -4.392017919148214 0.24229458095275036
-48.31710709318497 -4.351367850880348 0.23734074235434677
-47.81641168289292 -4.310656773676333 0.2324309462594647
-47.31571627260084 -4.269885264299444 0.22756551044118667
-46.81502086230876 -4.229053899513002 0.2227447526726094
-46.3143254520167 -4.188163256080327 0.21796899072681541
-45.81363004172462 -4.147213910764745 0.21323854237689432
-45.31293463143254 -4.106206440329541 0.2085537253959393
-44.81223922114049 -4.065141421538056 0.20391485755702576
-44.311543810848406 -4.0240194311535875 0.19932225663326109
-43.810848400556324 -3.982841045939435 0.19477624039771713
-43.31015299026427 -3.9416068426589534 0.19027712662350127
-42.80945757997219 -3.900317398075413 0.1858252330836747
-42.30876216968011 -3.8589732889521615 0.18142087755135905
-41.808066759388026 -3.8175750920524907 0.17706437779961903
-41.30737134909597 -3.7761233841397344 0.17275605160155139
-40.80667593880389 -3.734618741977184 0.16849621673024573
-40.30598052851181 -3.693061742328166 0.16428519095879524
-39.80528511821976 -3.651452961955994 0.16012329206028597
-39.304589707927676 -3.6097929776239797 0.15601083780779335
-38.803894297635594 -3.568082366095436 0.1519481459744212
-38.30319888734354 -3.526321704133676 0.14793553433325912
-37.80250347705146 -3.484511568502012 0.14397332065738966
-37.30180806675938 -3.4426525359637568 0.14006182271989887
-36.801112656467325 -3.400745183282237 0.13620135829388347
-36.30041724617524 -3.3587900872207515 0.13239224515242598
-35.79972183588316 -3.3167878245425984 0.12863480106861247
-35.29902642559111 -3.274738972011133 0.12492934381554677
-34.79833101529903 -3.23264410638964 0.12127619116630428
-34.297635605006946 -3.1905038044414598 0.11767566089397818
-33.79694019471489 -3.14831864292987 0.11412807077165454
-33.29624478442281 -3.1060891986182044 0.11063373857241943
-32.79554937413073 -3.063816048269783 0.10719298206937311
-32.294853963838676 -3.021499768647897 0.103806119035591
-31.794158553546595 -2.979140936515866 0.10047346724417694
-31.293463143254513 -2.93674012863701 0.09719534446820632
-30.79276773296246 -2.8942979217746627 0.09397206848077588
-30.29207232267038 -2.851814892692116 0.09080395705496458
-29.791376912378297 -2.8092916181526677 0.08769132796387269
-29.290681502086244 -2.766728674919695 0.08463449898058628
-28.789986091794162 -2.7241266397564035 0.08163378787818432
-28.28929068150208 -2.6814860894262127 0.07868951242977062
-27.788595271210028 -2.6388076006923997 0.07580199040842417
-27.287899860917946 -2.5960917503182204 0.07297153958722746
-26.787204450625865 -2.5533391150670726 0.07019847773928789
-26.28650904033381 -2.510550271702269 0.06748312263768796
-25.78581363004173 -2.467725796987051 0.06482579205550665
-25.28511821974965 -2.4248662676847745 0.06222680376583711
-24.784422809457595 -2.38197226055878 0.059686475541776085
-24.283727399165514 -2.3390443523722952 0.05720512515639897
-23.783031988873432 -2.2960831198887464 0.054783070382806054
-23.28233657858135 -2.253089139871361 0.05242062899407984
-22.781641168289298 -2.210062989083508 0.05011811876331351
-22.280945757997216 -2.1670052442884726 0.04787585746359668
-21.780250347705135 -2.1239164822495527 0.04569416286800476
-21.27955493741308 -2.0807972797301035 0.043573352749648686
-20.778859527121 -2.0376482134934095 0.041513744881593206
-20.27816411682892 -1.9944698603027833 0.03951565703694926
-19.777468706536865 -1.951262796921566 0.03757940698878515
-19.276773296244784 -1.9080276001130274 0.03570531251021536
-18.776077885952702 -1.864764846640509 0.03389369137429754
-18.27538247566065 -1.8214751132673657 0.03214486135414263
-17.774687065368568 -1.778158976756825 0.030459140222829584
-17.273991655076486 -1.7348170138722425 0.028836845753458684
-16.773296244784433 -1.691449801376959 0.02727829571910534
-16.27260083449235 -1.6480579160342304 0.025783807892866273
-15.77190542420027 -1.604641934607426 0.024353700047824
-15.271210013908217 -1.5612024338598305 0.0229882899570788
-14.770514603616135 -1.517739990554742 0.021687895393702528
-14.269819193324054 -1.4742551814555442 0.020452834130799014
-13.769123783032 -1.4307485833254647 0.019283423941450772
-13.268428372739919 -1.3872207729278303 0.01817998259874032
-12.767732962447838 -1.3436723270260105 0.017142827875771482
-12.267037552155784 -1.3001038223832895 0.01617227754561612
-11.766342141863703 -1.2565158357629373 0.015268649381381616
-11.265646731571621 -1.2129089439283662 0.014432261156139825
-10.764951321279568 -1.1692837236428035 0.01366343064298392
-10.264255910987487 -1.1256407516695477 0.012962475615003521
-9.763560500695405 -1.0819824756606393 0.01232208623087621
-9.262865090403352 -1.0385115438108496 0.011729151599443688
-8.76216968011127 -0.995774687065369 0.011192656467315721
-8.261474269819189 -0.9450053546592485 0.010655236439499298
